sample_index,time_s,afe_out_v,adc_hold_v,adc_clip_v,th_adc_code,th_adc_signed,th_hex12,direct_adc_code,direct_adc_signed
0,0.001,-0.0165058858693,-0.0165004357696,-0.0165004357696,2027,-21,FEB,2027,-21
1,0.002,-0.0222963560373,-0.022294845432,-0.022294845432,2019,-29,FE3,2019,-29
2,0.003,-0.0236978922039,-0.0236976370215,-0.0236976370215,2018,-30,FE2,2018,-30
3,0.004,-0.023805828765,-0.0238061882555,-0.0238061882555,2017,-31,FE1,2017,-31
4,0.005,-0.0238470304757,-0.0238469894975,-0.0238469894975,2017,-31,FE1,2017,-31
5,0.006,-0.0242603048682,-0.0242608673871,-0.0242608673871,2017,-31,FE1,2017,-31
6,0.007,-0.0251266509295,-0.0251280460507,-0.0251280460507,2016,-32,FE0,2016,-32
7,0.008,-0.0263526253402,-0.0263512339443,-0.0263512339443,2014,-34,FDE,2014,-34
8,0.009,-0.0277611967176,-0.0277604199946,-0.0277604199946,2013,-35,FDD,2013,-35
9,0.01,-0.0291472487152,-0.0291465185583,-0.0291465185583,2011,-37,FDB,2011,-37
10,0.011,-0.0303173270077,-0.0303167626262,-0.0303167626262,2009,-39,FD9,2009,-39
11,0.012,-0.0311188157648,-0.0311204362661,-0.0311204362661,2008,-40,FD8,2008,-40
12,0.013,-0.0314591154456,-0.0314599238336,-0.0314599238336,2008,-40,FD8,2008,-40
13,0.014,-0.0313144177198,-0.0313143469393,-0.0313143469393,2008,-40,FD8,2008,-40
14,0.015,-0.030728135258,-0.0307272411883,-0.0307272411883,2009,-39,FD9,2009,-39
15,0.016,-0.0298002436757,-0.029798688367,-0.029798688367,2010,-38,FDA,2010,-38
16,0.017,-0.0286696851254,-0.0286677069962,-0.0286677069962,2011,-37,FDB,2011,-37
17,0.018,-0.0274927504361,-0.027493391186,-0.027493391186,2013,-35,FDD,2013,-35
18,0.019,-0.0264206733555,-0.0264186747372,-0.0264186747372,2014,-34,FDE,2014,-34
19,0.02,-0.0255795605481,-0.0255779437721,-0.0255779437721,2015,-33,FDF,2015,-33
20,0.021,-0.0250551421195,-0.0250540710986,-0.0250540710986,2016,-32,FE0,2016,-32
21,0.022,-0.0248841121793,-0.024883672595,-0.024883672595,2016,-32,FE0,2016,-32
22,0.023,-0.0225909110159,-0.0225909352303,-0.0225909352303,2019,-29,FE3,2019,-29
23,0.024,-0.0217707324773,-0.0217707771808,-0.0217707771808,2020,-28,FE4,2020,-28
24,0.025,-0.0220745354891,-0.0220748689026,-0.0220748689026,2020,-28,FE4,2020,-28
25,0.026,-0.0244579538703,-0.0244578439742,-0.0244578439742,2017,-31,FE1,2017,-31
26,0.027,-0.0257360972464,-0.0257355924696,-0.0257355924696,2015,-33,FDF,2015,-33
27,0.028,-0.0267104320228,-0.0267092846334,-0.0267092846334,2014,-34,FDE,2014,-34
28,0.029,-0.0278646107763,-0.027864286676,-0.027864286676,2012,-36,FDC,2012,-36
29,0.03,-0.028039643541,-0.0280403289944,-0.0280403289944,2012,-36,FDC,2012,-36
30,0.031,-0.0280399192125,-0.0280397757888,-0.0280397757888,2012,-36,FDC,2012,-36
31,0.032,-0.0278690066189,-0.0278689004481,-0.0278689004481,2012,-36,FDC,2012,-36
32,0.033,-0.027340343222,-0.0273394566029,-0.0273394566029,2013,-35,FDD,2013,-35
33,0.034,-0.0276339128613,-0.0276345424354,-0.0276345424354,2013,-35,FDD,2013,-35
34,0.035,-0.0276851262897,-0.02768538706,-0.02768538706,2013,-35,FDD,2013,-35
35,0.036,-0.0274856481701,-0.0274852942675,-0.0274852942675,2013,-35,FDD,2013,-35
36,0.037,-0.0268201157451,-0.0268203709275,-0.0268203709275,2014,-34,FDE,2014,-34
37,0.038,-0.0266407076269,-0.0266400966793,-0.0266400966793,2014,-34,FDE,2014,-34
38,0.039,-0.02691023238,-0.0269098114222,-0.0269098114222,2014,-34,FDE,2014,-34
39,0.04,-0.0278174411505,-0.0278170332313,-0.0278170332313,2012,-36,FDC,2012,-36
40,0.041,-0.0284499004483,-0.0284496862441,-0.0284496862441,2012,-36,FDC,2012,-36
41,0.042,-0.0296771489084,-0.0296756997705,-0.0296756997705,2010,-38,FDA,2010,-38
42,0.043,-0.0313197784126,-0.0313192307949,-0.0313192307949,2008,-40,FD8,2008,-40
43,0.044,-0.0319308489561,-0.0319306738675,-0.0319306738675,2007,-41,FD7,2007,-41
44,0.045,-0.0324677787721,-0.0324690788984,-0.0324690788984,2007,-41,FD7,2007,-41
45,0.046,-0.0326861776412,-0.0326867587864,-0.0326867587864,2006,-42,FD6,2006,-42
46,0.047,-0.0325391069055,-0.0325389243662,-0.0325389243662,2007,-41,FD7,2007,-41
47,0.048,-0.0327362082899,-0.0327367708087,-0.0327367708087,2006,-42,FD6,2006,-42
48,0.049,-0.0326558873057,-0.0326558463275,-0.0326558463275,2006,-42,FD6,2006,-42
49,0.05,-0.032412275672,-0.0324118584394,-0.0324118584394,2007,-41,FD7,2007,-41
50,0.051,-0.0304640382528,-0.0304647367448,-0.0304647367448,2009,-39,FD9,2009,-39
51,0.052,-0.0296985469759,-0.029696892947,-0.029696892947,2010,-38,FDA,2010,-38
52,0.053,-0.0289723388851,-0.0289724878967,-0.0289724878967,2011,-37,FDB,2011,-37
53,0.054,-0.0275703463703,-0.0275707319379,-0.0275707319379,2013,-35,FDD,2013,-35
54,0.055,-0.0272303018719,-0.0272292718291,-0.0272292718291,2013,-35,FDD,2013,-35
55,0.056,-0.0284798312932,-0.0284776482731,-0.0284776482731,2012,-36,FDC,2012,-36
56,0.057,-0.0300569180399,-0.0300564449281,-0.0300564449281,2010,-38,FDA,2010,-38
57,0.058,-0.0304895602167,-0.0304905883968,-0.0304905883968,2009,-39,FD9,2009,-39
58,0.059,-0.0308876149356,-0.0308886561543,-0.0308886561543,2009,-39,FD9,2009,-39
59,0.06,-0.0309248454869,-0.030925065279,-0.030925065279,2009,-39,FD9,2009,-39
60,0.061,-0.0306896679103,-0.0306892935187,-0.0306892935187,2009,-39,FD9,2009,-39
61,0.062,-0.0314614549279,-0.0314606651664,-0.0314606651664,2008,-40,FD8,2008,-40
62,0.063,-0.0316588617861,-0.0316593758762,-0.0316593758762,2008,-40,FD8,2008,-40
63,0.064,-0.0314253941178,-0.0314264558256,-0.0314264558256,2008,-40,FD8,2008,-40
64,0.065,-0.0303157810122,-0.0303168427199,-0.0303168427199,2009,-39,FD9,2009,-39
65,0.066,-0.0300113614649,-0.0300106555223,-0.0300106555223,2010,-38,FDA,2010,-38
66,0.067,-0.0288392417133,-0.0288410931826,-0.0288410931826,2011,-37,FDB,2011,-37
67,0.068,-0.0269139613956,-0.026914473623,-0.026914473623,2014,-34,FDE,2014,-34
68,0.069,-0.0264997817576,-0.026498766616,-0.026498766616,2014,-34,FDE,2014,-34
69,0.07,-0.0249731410295,-0.0249742586166,-0.0249742586166,2016,-32,FE0,2016,-32
70,0.071,-0.0237946845591,-0.0237951483577,-0.0237951483577,2017,-31,FE1,2017,-31
71,0.072,-0.0234039984643,-0.0234041456133,-0.0234041456133,2018,-30,FE2,2018,-30
72,0.073,-0.0251010917127,-0.025100370869,-0.025100370869,2016,-32,FE0,2016,-32
73,0.074,-0.0257269795984,-0.0257269535214,-0.0257269535214,2015,-33,FDF,2015,-33
74,0.075,-0.0254402384162,-0.0254399217665,-0.0254399217665,2015,-33,FDF,2015,-33
75,0.076,-0.028777282685,-0.0287763420492,-0.0287763420492,2011,-37,FDB,2011,-37
76,0.077,-0.0294490698725,-0.0294508393854,-0.0294508393854,2010,-38,FDA,2010,-38
77,0.078,-0.0296589322388,-0.029657933861,-0.029657933861,2010,-38,FDA,2010,-38
78,0.079,-0.0306430719793,-0.0306453071535,-0.0306453071535,2009,-39,FD9,2009,-39
79,0.08,-0.0308615863323,-0.0308620426804,-0.0308620426804,2009,-39,FD9,2009,-39
80,0.081,-0.0329248160124,-0.0329225473106,-0.0329225473106,2006,-42,FD6,2006,-42
81,0.082,-0.0356344953179,-0.0356337502599,-0.0356337502599,2003,-45,FD3,2003,-45
82,0.083,-0.0369913056493,-0.0369898080826,-0.0369898080826,2001,-47,FD1,2001,-47
83,0.084,-0.0370780676603,-0.0370780602098,-0.0370780602098,2001,-47,FD1,2001,-47
84,0.085,-0.0374104604125,-0.0374110452831,-0.0374110452831,2001,-47,FD1,2001,-47
85,0.086,-0.0381108745933,-0.0381120927632,-0.0381120927632,2000,-48,FD0,2000,-48
86,0.087,-0.0409650653601,-0.0409637987614,-0.0409637987614,1996,-52,FCC,1996,-52
87,0.088,-0.0424154885113,-0.0424185656011,-0.0424185656011,1994,-54,FCA,1994,-54
88,0.089,-0.0429996736348,-0.0429985672235,-0.0429985672235,1994,-54,FCA,1994,-54
89,0.09,-0.0434890128672,-0.0434902459383,-0.0434902459383,1993,-55,FC9,1993,-55
90,0.091,-0.0432836674154,-0.043283469975,-0.043283469975,1993,-55,FC9,1993,-55
91,0.092,-0.0432284846902,-0.0432276241481,-0.0432276241481,1993,-55,FC9,1993,-55
92,0.093,-0.0433899462223,-0.0433905795217,-0.0433905795217,1993,-55,FC9,1993,-55
93,0.094,-0.0429478771985,-0.0429471842945,-0.0429471842945,1994,-54,FCA,1994,-54
94,0.095,-0.0435745641589,-0.0435756780207,-0.0435756780207,1993,-55,FC9,1993,-55
95,0.096,-0.0440723262727,-0.0440735183656,-0.0440735183656,1992,-56,FC8,1992,-56
96,0.097,-0.0440780855715,-0.0440781377256,-0.0440781377256,1992,-56,FC8,1992,-56
97,0.098,-0.0440804995596,-0.0440804548562,-0.0440804548562,1992,-56,FC8,1992,-56
98,0.099,-0.0442445576191,-0.0442447848618,-0.0442447848618,1992,-56,FC8,1992,-56
99,0.1,-0.0445890836418,-0.0445896461606,-0.0445896461606,1992,-56,FC8,1992,-56
100,0.101,-0.0450634099543,-0.0450642369688,-0.0450642369688,1991,-57,FC7,1991,-57
101,0.102,-0.0455860346556,-0.0455869808793,-0.0455869808793,1990,-58,FC6,1990,-58
102,0.103,-0.0457261614501,-0.0457276403904,-0.0457276403904,1990,-58,FC6,1990,-58
103,0.104,-0.0451434925199,-0.0451421700418,-0.0451421700418,1991,-57,FC7,1991,-57
104,0.105,-0.0450367070735,-0.0450364798307,-0.0450364798307,1991,-57,FC7,1991,-57
105,0.106,-0.0443313829601,-0.0443303212523,-0.0443303212523,1992,-56,FC8,1992,-56
106,0.107,-0.0433394350111,-0.0433374531567,-0.0433374531567,1993,-55,FC9,1993,-55
107,0.108,-0.0426963455975,-0.0426951758564,-0.0426951758564,1994,-54,FCA,1994,-54
108,0.109,-0.0429716035724,-0.0429720506072,-0.0429720506072,1994,-54,FCA,1994,-54
109,0.11,-0.0428690686822,-0.0428691357374,-0.0428691357374,1994,-54,FCA,1994,-54
110,0.111,-0.0423193573952,-0.0423184521496,-0.0423184521496,1994,-54,FCA,1994,-54
111,0.112,-0.0427284687757,-0.0427296198905,-0.0427296198905,1994,-54,FCA,1994,-54
112,0.113,-0.0425925403833,-0.0425924248993,-0.0425924248993,1994,-54,FCA,1994,-54
113,0.114,-0.0425544343889,-0.0425532497466,-0.0425532497466,1994,-54,FCA,1994,-54
114,0.115,-0.0439307242632,-0.0439302995801,-0.0439302995801,1992,-56,FC8,1992,-56
115,0.116,-0.0444244667888,-0.0444254875183,-0.0444254875183,1992,-56,FC8,1992,-56
116,0.117,-0.0447371341288,-0.044736970216,-0.044736970216,1991,-57,FC7,1991,-57
117,0.118,-0.0451020523906,-0.0451013185084,-0.0451013185084,1991,-57,FC7,1991,-57
118,0.119,-0.0455566085875,-0.045556332916,-0.045556332916,1990,-58,FC6,1990,-58
119,0.12,-0.0460564531386,-0.0460573621094,-0.0460573621094,1990,-58,FC6,1990,-58
120,0.121,-0.0465283244848,-0.0465292073786,-0.0465292073786,1989,-59,FC5,1989,-59
121,0.122,-0.0468979813159,-0.0468987077475,-0.0468987077475,1989,-59,FC5,1989,-59
122,0.123,-0.0471065044403,-0.0471069589257,-0.0471069589257,1989,-59,FC5,1989,-59
123,0.124,-0.0471195802093,-0.047119691968,-0.047119691968,1989,-59,FC5,1989,-59
124,0.125,-0.0469312779605,-0.0469310246408,-0.0469310246408,1989,-59,FC5,1989,-59
125,0.126,-0.0459939986467,-0.0459916144609,-0.0459916144609,1990,-58,FC6,1990,-58
126,0.127,-0.0452907048166,-0.0452894158661,-0.0452894158661,1991,-57,FC7,1991,-57
127,0.128,-0.0450047552586,-0.0450029745698,-0.0450029745698,1991,-57,FC7,1991,-57
128,0.129,-0.0453558526933,-0.0453568212688,-0.0453568212688,1991,-57,FC7,1991,-57
129,0.13,-0.0451068878174,-0.0451065413654,-0.0451065413654,1991,-57,FC7,1991,-57
130,0.131,-0.0453375726938,-0.0453375540674,-0.0453375540674,1991,-57,FC7,1991,-57
131,0.132,-0.04576645419,-0.045767467469,-0.045767467469,1990,-58,FC6,1990,-58
132,0.133,-0.0458019971848,-0.0458021014929,-0.0458021014929,1990,-58,FC6,1990,-58
133,0.134,-0.0440288260579,-0.044030956924,-0.044030956924,1992,-56,FC8,1992,-56
134,0.135,-0.0430055111647,-0.0430031828582,-0.0430031828582,1994,-54,FCA,1994,-54
135,0.136,-0.0429286509752,-0.0429283380508,-0.0429283380508,1994,-54,FCA,1994,-54
136,0.137,-0.0421330519021,-0.0421310141683,-0.0421310141683,1995,-53,FCB,1995,-53
137,0.138,-0.0420163311064,-0.0420159734786,-0.0420159734786,1995,-53,FCB,1995,-53
138,0.139,-0.0421536378562,-0.042153891176,-0.042153891176,1995,-53,FCB,1995,-53
139,0.14,-0.0422347038984,-0.04223491624,-0.04223491624,1995,-53,FCB,1995,-53
140,0.141,-0.0421361364424,-0.0421360470355,-0.0421360470355,1995,-53,FCB,1995,-53
141,0.142,-0.0420730486512,-0.0420725792646,-0.0420725792646,1995,-53,FCB,1995,-53
142,0.143,-0.0420057848096,-0.0420058891177,-0.0420058891177,1995,-53,FCB,1995,-53
143,0.144,-0.0415162853897,-0.0415154993534,-0.0415154993534,1995,-53,FCB,1995,-53
144,0.145,-0.0412685573101,-0.0412678606808,-0.0412678606808,1996,-52,FCC,1996,-52
145,0.146,-0.0409440994263,-0.0409436188638,-0.0409436188638,1996,-52,FCC,1996,-52
146,0.147,-0.0404882356524,-0.0404874123633,-0.0404874123633,1997,-51,FCD,1997,-51
147,0.148,-0.0420853644609,-0.0420835763216,-0.0420835763216,1995,-53,FCB,1995,-53
148,0.149,-0.0429022759199,-0.0429040752351,-0.0429040752351,1994,-54,FCA,1994,-54
149,0.15,-0.0431659929454,-0.0431665331125,-0.0431665331125,1993,-55,FC9,1993,-55
150,0.151,-0.0416604988277,-0.0416599884629,-0.0416599884629,1995,-53,FCB,1995,-53
151,0.152,-0.0413572341204,-0.0413564071059,-0.0413564071059,1996,-52,FCC,1996,-52
152,0.153,-0.041955165565,-0.0419554114342,-0.0419554114342,1995,-53,FCB,1995,-53
153,0.154,-0.0433446392417,-0.043347466737,-0.043347466737,1993,-55,FC9,1993,-55
154,0.155,-0.0440694354475,-0.0440708994865,-0.0440708994865,1992,-56,FC8,1992,-56
155,0.156,-0.0431962609291,-0.0431954339147,-0.0431954339147,1993,-55,FC9,1993,-55
156,0.157,-0.0417929217219,-0.0417899303138,-0.0417899303138,1995,-53,FCB,1995,-53
157,0.158,-0.0412491820753,-0.0412480942905,-0.0412480942905,1996,-52,FCC,1996,-52
158,0.159,-0.0417862460017,-0.0417859144509,-0.0417859144509,1995,-53,FCB,1995,-53
159,0.16,-0.0419452600181,-0.0419458188117,-0.0419458188117,1995,-53,FCB,1995,-53
160,0.161,-0.0415768921375,-0.0415763556957,-0.0415763556957,1995,-53,FCB,1995,-53
161,0.162,-0.042051486671,-0.0420528799295,-0.0420528799295,1995,-53,FCB,1995,-53
162,0.163,-0.04185853526,-0.0418583638966,-0.0418583638966,1995,-53,FCB,1995,-53
163,0.164,-0.041655484587,-0.0416543669999,-0.0416543669999,1995,-53,FCB,1995,-53
164,0.165,-0.0427886806428,-0.0427884049714,-0.0427884049714,1994,-54,FCA,1994,-54
165,0.166,-0.0429999679327,-0.0430004857481,-0.0430004857481,1994,-54,FCA,1994,-54
166,0.167,-0.0432765632868,-0.0432768091559,-0.0432768091559,1993,-55,FC9,1993,-55
167,0.168,-0.04382539168,-0.0438264794648,-0.0438264794648,1993,-55,FC9,1993,-55
168,0.169,-0.0442384928465,-0.0442392341793,-0.0442392341793,1992,-56,FC8,1992,-56
169,0.17,-0.0458732359111,-0.045872118324,-0.045872118324,1990,-58,FC6,1990,-58
170,0.171,-0.0473196282983,-0.047319162637,-0.047319162637,1988,-60,FC4,1988,-60
171,0.172,-0.0480648092926,-0.0480667874217,-0.0480667874217,1987,-61,FC3,1987,-61
172,0.173,-0.0509638562799,-0.0509624704719,-0.0509624704719,1984,-64,FC0,1984,-64
173,0.174,-0.0524865947664,-0.0524899065495,-0.0524899065495,1982,-66,FBE,1982,-66
174,0.175,-0.052919279784,-0.0529202856123,-0.0529202856123,1981,-67,FBD,1981,-67
175,0.176,-0.0557540617883,-0.0557529851794,-0.0557529851794,1978,-70,FBA,1978,-70
176,0.177,-0.0565617159009,-0.0565641634166,-0.0565641634166,1977,-71,FB9,1977,-71
177,0.178,-0.0565483644605,-0.056548487395,-0.056548487395,1977,-71,FB9,1977,-71
178,0.179,-0.0563035346568,-0.0563031211495,-0.0563031211495,1977,-71,FB9,1977,-71
179,0.18,-0.0560684017837,-0.0560679584742,-0.0560679584742,1977,-71,FB9,1977,-71
180,0.181,-0.0571744292974,-0.0571759045124,-0.0571759045124,1976,-72,FB8,1976,-72
181,0.182,-0.0586781241,-0.0586813502014,-0.0586813502014,1974,-74,FB6,1974,-74
182,0.183,-0.0592141188681,-0.0592152550817,-0.0592152550817,1974,-74,FB6,1974,-74
183,0.184,-0.0639214143157,-0.0639187246561,-0.0639187246561,1968,-80,FB0,1968,-80
184,0.185,-0.0669480785728,-0.0669471919537,-0.0669471919537,1964,-84,FAC,1964,-84
185,0.186,-0.0678971409798,-0.0678960680962,-0.0678960680962,1963,-85,FAB,1963,-85
186,0.187,-0.0713636577129,-0.0713622793555,-0.0713622793555,1958,-90,FA6,1958,-90
187,0.188,-0.072836317122,-0.0728395208716,-0.0728395208716,1957,-91,FA5,1957,-91
188,0.189,-0.0733283013105,-0.0733293443918,-0.0733293443918,1956,-92,FA4,1956,-92
189,0.19,-0.0735732838511,-0.0735737532377,-0.0735737532377,1956,-92,FA4,1956,-92
190,0.191,-0.0738210603595,-0.0738214924932,-0.0738214924932,1955,-93,FA3,1955,-93
191,0.192,-0.0711921527982,-0.0711964890361,-0.0711964890361,1959,-89,FA7,1959,-89
192,0.193,-0.0664328113198,-0.0664341747761,-0.0664341747761,1965,-83,FAD,1965,-83
193,0.194,-0.0651897490025,-0.0651860535145,-0.0651860535145,1966,-82,FAE,1966,-82
194,0.195,-0.0575455650687,-0.0575511865318,-0.0575511865318,1976,-72,FB8,1976,-72
195,0.196,-0.0515120737255,-0.0515139661729,-0.0515139661729,1983,-65,FBF,1983,-65
196,0.197,-0.0496194660664,-0.0496212728322,-0.0496212728322,1985,-63,FC1,1985,-63
197,0.198,-0.0379941016436,-0.0379995517433,-0.0379995517433,2000,-48,FD0,2000,-48
198,0.199,-0.0315630435944,-0.0315651595592,-0.0315651595592,2008,-40,FD8,2008,-40
199,0.2,-0.0288458615541,-0.0288468562067,-0.0288468562067,2011,-37,FDB,2011,-37
200,0.201,-0.00995288603008,-0.00995963532478,-0.00995963532478,2035,-13,FF3,2035,-13
201,0.202,-0.00208578328602,-0.0020885465201,-0.0020885465201,2044,-4,FFC,2044,-4
202,0.203,0.00798994582146,0.00797264650464,0.00797264650464,2057,9,009,2057,9
203,0.204,0.0283090602607,0.0283023696393,0.0283023696393,2082,34,022,2082,34
204,0.205,0.0360199324787,0.0360172763467,0.0360172763467,2092,44,02C,2092,44
205,0.206,0.0551985278726,0.0551793016493,0.0551793016493,2115,67,043,2115,67
206,0.207,0.076675362885,0.0766686499119,0.0766686499119,2142,94,05E,2142,94
207,0.208,0.0843223109841,0.0843198075891,0.0843198075891,2152,104,068,2152,104
208,0.209,0.109272427857,0.10925809294,0.10925809294,2183,135,087,2183,135
209,0.21,0.125198304653,0.125193208456,0.125193208456,2202,154,09A,2202,154
210,0.211,0.131037548184,0.131035476923,0.131035476923,2210,162,0A2,2210,162
211,0.212,0.150952130556,0.150943875313,0.150943875313,2234,186,0BA,2234,186
212,0.213,0.160633012652,0.160629495978,0.160629495978,2246,198,0C6,2246,198
213,0.214,0.166339710355,0.166331931949,0.166331931949,2253,205,0CD,2253,205
214,0.215,0.175938263535,0.17593459785,0.17593459785,2265,217,0D9,2265,217
215,0.216,0.181012421846,0.181010171771,0.181010171771,2272,224,0E0,2272,224
216,0.217,0.180824190378,0.180828288198,0.180828288198,2271,223,0DF,2271,223
217,0.218,0.177221626043,0.177222087979,0.177222087979,2267,219,0DB,2267,219
218,0.219,0.177449241281,0.177449196577,0.177449196577,2267,219,0DB,2267,219
219,0.22,0.159046500921,0.159059897065,0.159059897065,2244,196,0C4,2244,196
220,0.221,0.143895372748,0.143899902701,0.143899902701,2226,178,0B2,2226,178
221,0.222,0.139012634754,0.139014527202,0.139014527202,2220,172,0AC,2220,172
222,0.223,0.102303490043,0.102321453393,0.102321453393,2174,126,07E,2174,126
223,0.224,0.0820665508509,0.0820732414722,0.0820732414722,2149,101,065,2149,101
224,0.225,0.0738720148802,0.0738753154874,0.0738753154874,2139,91,05B,2139,91
225,0.226,0.0306759029627,0.0306914467365,0.0306914467365,2085,37,025,2085,37
226,0.227,0.0122540155426,0.0122606949881,0.0122606949881,2062,14,00E,2062,14
227,0.228,-0.00357359065674,-0.0035523660481,-0.0035523660481,2043,-5,FFB,2043,-5
228,0.229,-0.028907770291,-0.0288986042142,-0.0288986042142,2011,-37,FDB,2011,-37
229,0.23,-0.0408054590225,-0.0408009774983,-0.0408009774983,1996,-52,FCC,1996,-52
230,0.231,-0.052408836782,-0.0524004586041,-0.0524004586041,1982,-66,FBE,1982,-66
231,0.232,-0.0633586198092,-0.0633541345596,-0.0633541345596,1968,-80,FB0,1968,-80
232,0.233,-0.0697025582194,-0.0697000026703,-0.0697000026703,1961,-87,FA9,1961,-87
233,0.234,-0.0729671567678,-0.0729658007622,-0.0729658007622,1956,-92,FA4,1956,-92
234,0.235,-0.0750946328044,-0.0750987678766,-0.0750987678766,1954,-94,FA2,1954,-94
235,0.236,-0.0763395056129,-0.0763421654701,-0.0763421654701,1952,-96,FA0,1952,-96
236,0.237,-0.0706103444099,-0.070613026619,-0.070613026619,1959,-89,FA7,1959,-89
237,0.238,-0.0671481713653,-0.0671496242285,-0.0671496242285,1964,-84,FAC,1964,-84
238,0.239,-0.0638752952218,-0.06388053298,-0.06388053298,1968,-80,FB0,1968,-80
239,0.24,-0.0570273920894,-0.0570301935077,-0.0570301935077,1976,-72,FB8,1976,-72
240,0.241,-0.0528381690383,-0.0528397262096,-0.0528397262096,1981,-67,FBD,1981,-67
241,0.242,-0.0493963882327,-0.0493983961642,-0.0493983961642,1986,-62,FC2,1986,-62
242,0.243,-0.0463208146393,-0.0463222227991,-0.0463222227991,1990,-58,FC6,1990,-58
243,0.244,-0.0440800003707,-0.0440810397267,-0.0440810397267,1992,-56,FC8,1992,-56
244,0.245,-0.0433816239238,-0.0433798842132,-0.0433798842132,1993,-55,FC9,1993,-55
245,0.246,-0.0432874783874,-0.0432872697711,-0.0432872697711,1993,-55,FC9,1993,-55
246,0.247,-0.043468836695,-0.0434689857066,-0.0434689857066,1993,-55,FC9,1993,-55
247,0.248,-0.04512726143,-0.0451253913343,-0.0451253913343,1991,-57,FC7,1991,-57
248,0.249,-0.0467639639974,-0.0467669740319,-0.0467669740319,1989,-59,FC5,1989,-59
249,0.25,-0.0483186691999,-0.048321466893,-0.048321466893,1987,-61,FC3,1987,-61
250,0.251,-0.0481235645711,-0.0481225587428,-0.0481225587428,1987,-61,FC3,1987,-61
251,0.252,-0.0488756522536,-0.0488768704236,-0.0488768704236,1986,-62,FC2,1986,-62
252,0.253,-0.0495980195701,-0.0496004074812,-0.0496004074812,1985,-63,FC1,1985,-63
253,0.254,-0.0497174449265,-0.0497176684439,-0.0497176684439,1985,-63,FC1,1985,-63
254,0.255,-0.0496712811291,-0.0496713556349,-0.0496713556349,1985,-63,FC1,1985,-63
255,0.256,-0.0485864058137,-0.0485874898732,-0.0485874898732,1987,-61,FC3,1987,-61
256,0.257,-0.0469209030271,-0.0469177924097,-0.0469177924097,1989,-59,FC5,1989,-59
257,0.258,-0.0454466864467,-0.0454474836588,-0.0454474836588,1991,-57,FC7,1991,-57
258,0.259,-0.0435245744884,-0.0435256101191,-0.0435256101191,1993,-55,FC9,1993,-55
259,0.26,-0.0418052002788,-0.0418070703745,-0.0418070703745,1995,-53,FCB,1995,-53
260,0.261,-0.0404533669353,-0.0404508076608,-0.0404508076608,1997,-51,FCD,1997,-51
261,0.262,-0.0405164957047,-0.040516756475,-0.040516756475,1997,-51,FCD,1997,-51
262,0.263,-0.040345788002,-0.0403455086052,-0.0403455086052,1997,-51,FCD,1997,-51
263,0.264,-0.040504667908,-0.0405025780201,-0.0405025780201,1997,-51,FCD,1997,-51
264,0.265,-0.0422424972057,-0.0422418490052,-0.0422418490052,1995,-53,FCB,1995,-53
265,0.266,-0.0431924201548,-0.0431919768453,-0.0431919768453,1993,-55,FC9,1993,-55
266,0.267,-0.04422820732,-0.044230312109,-0.044230312109,1992,-56,FC8,1992,-56
267,0.268,-0.0454509295523,-0.0454532764852,-0.0454532764852,1991,-57,FC7,1991,-57
268,0.269,-0.0463668294251,-0.0463664159179,-0.0463664159179,1989,-59,FC5,1989,-59
269,0.27,-0.0458973348141,-0.0458966866136,-0.0458966866136,1990,-58,FC6,1990,-58
270,0.271,-0.0454496927559,-0.0454486235976,-0.0454486235976,1991,-57,FC7,1991,-57
271,0.272,-0.045446459204,-0.0454464405775,-0.0454464405775,1991,-57,FC7,1991,-57
272,0.273,-0.0473719388247,-0.0473701953888,-0.0473701953888,1988,-60,FC4,1988,-60
273,0.274,-0.0481247492135,-0.0481266155839,-0.0481266155839,1987,-61,FC3,1987,-61
274,0.275,-0.0478781051934,-0.0478778928518,-0.0478778928518,1988,-60,FC4,1988,-60
275,0.276,-0.0460508204997,-0.0460516475141,-0.0460516475141,1990,-58,FC6,1990,-58
276,0.277,-0.0448095574975,-0.0448071807623,-0.0448071807623,1991,-57,FC7,1991,-57
277,0.278,-0.0437242016196,-0.0437250696123,-0.0437250696123,1993,-55,FC9,1993,-55
278,0.279,-0.042568385601,-0.042569745332,-0.042569745332,1994,-54,FCA,1994,-54
279,0.28,-0.0419589653611,-0.0419577248394,-0.0419577248394,1995,-53,FCB,1995,-53
280,0.281,-0.0419958122075,-0.0419955104589,-0.0419955104589,1995,-53,FCB,1995,-53
281,0.282,-0.0423413775861,-0.0423420742154,-0.0423420742154,1994,-54,FCA,1994,-54
282,0.283,-0.0425926782191,-0.0425931327045,-0.0425931327045,1994,-54,FCA,1994,-54
283,0.284,-0.0424162037671,-0.0424158088863,-0.0424158088863,1994,-54,FCA,1994,-54
284,0.285,-0.0424266010523,-0.0424265153706,-0.0424265153706,1994,-54,FCA,1994,-54
285,0.286,-0.0426341593266,-0.0426345206797,-0.0426345206797,1994,-54,FCA,1994,-54
286,0.287,-0.0423193126917,-0.0423184596002,-0.0423184596002,1994,-54,FCA,1994,-54
287,0.288,-0.0422254689038,-0.0422252677381,-0.0422252677381,1995,-53,FCB,1995,-53
288,0.289,-0.0422554761171,-0.0422550477087,-0.0422550477087,1995,-53,FCB,1995,-53
289,0.29,-0.0426245443523,-0.0426254607737,-0.0426254607737,1994,-54,FCA,1994,-54
290,0.291,-0.0425000116229,-0.0424999147654,-0.0424999147654,1994,-54,FCA,1994,-54
291,0.292,-0.0421282313764,-0.0421276316047,-0.0421276316047,1995,-53,FCB,1995,-53
292,0.293,-0.0416424758732,-0.0416416339576,-0.0416416339576,1995,-53,FCB,1995,-53
293,0.294,-0.0411316938698,-0.0411307774484,-0.0411307774484,1996,-52,FCC,1996,-52
294,0.295,-0.0418522469699,-0.0418535806239,-0.0418535806239,1995,-53,FCB,1995,-53
295,0.296,-0.0424333885312,-0.042434759438,-0.042434759438,1994,-54,FCA,1994,-54
296,0.297,-0.0424442961812,-0.042444396764,-0.042444396764,1994,-54,FCA,1994,-54
297,0.298,-0.0433416739106,-0.0433439314365,-0.0433439314365,1993,-55,FC9,1993,-55
298,0.299,-0.0438401848078,-0.0438412316144,-0.0438412316144,1993,-55,FC9,1993,-55
299,0.3,-0.0440884158015,-0.0440888851881,-0.0440888851881,1992,-56,FC8,1992,-56
300,0.301,-0.0420502126217,-0.0420508272946,-0.0420508272946,1995,-53,FCB,1995,-53
301,0.302,-0.0415369793773,-0.0415357202291,-0.0415357202291,1995,-53,FCB,1995,-53
302,0.303,-0.0413150563836,-0.0413153544068,-0.0413153544068,1996,-52,FCC,1996,-52
303,0.304,-0.0406497754157,-0.0406482480466,-0.0406482480466,1997,-51,FCD,1997,-51
304,0.305,-0.0405782498419,-0.0405780635774,-0.0405780635774,1997,-51,FCD,1997,-51
305,0.306,-0.0393343940377,-0.0393358208239,-0.0393358208239,1998,-50,FCE,1998,-50
306,0.307,-0.0376758761704,-0.0376761630177,-0.0376761630177,2000,-48,FD0,2000,-48
307,0.308,-0.0368915610015,-0.0368895381689,-0.0368895381689,2001,-47,FD1,2001,-47
308,0.309,-0.0376329757273,-0.037634678185,-0.037634678185,2000,-48,FD0,2000,-48
309,0.31,-0.0378478914499,-0.0378486439586,-0.0378486439586,2000,-48,FD0,2000,-48
310,0.311,-0.0373655073345,-0.0373647809029,-0.0373647809029,2001,-47,FD1,2001,-47
311,0.312,-0.0366529561579,-0.0366533696651,-0.0366533696651,2002,-46,FD2,2002,-46
312,0.313,-0.0359508171678,-0.0359495207667,-0.0359495207667,2002,-46,FD2,2002,-46
313,0.314,-0.0355735272169,-0.0355726592243,-0.0355726592243,2003,-45,FD3,2003,-45
314,0.315,-0.0362857803702,-0.0362873524427,-0.0362873524427,2002,-46,FD2,2002,-46
315,0.316,-0.0365163460374,-0.0365168079734,-0.0365168079734,2002,-46,FD2,2002,-46
316,0.317,-0.0372027754784,-0.0372013039887,-0.0372013039887,2001,-47,FD1,2001,-47
317,0.318,-0.038354948163,-0.03835446015,-0.03835446015,1999,-49,FCF,1999,-49
318,0.319,-0.039027120918,-0.0390288420022,-0.0390288420022,1999,-49,FCF,1999,-49
319,0.32,-0.0391564741731,-0.0391569547355,-0.0391569547355,1998,-50,FCE,1998,-50
320,0.321,-0.0392973050475,-0.039297465235,-0.039297465235,1998,-50,FCE,1998,-50
321,0.322,-0.0395906940103,-0.0395912267268,-0.0395912267268,1998,-50,FCE,1998,-50
322,0.323,-0.0403365008533,-0.0403384082019,-0.0403384082019,1997,-51,FCD,1997,-51
323,0.324,-0.0407076850533,-0.0407075956464,-0.0407075956464,1996,-52,FCC,1996,-52
324,0.325,-0.0407147072256,-0.0407148487866,-0.0407148487866,1996,-52,FCC,1996,-52
325,0.326,-0.0410526059568,-0.0410537049174,-0.0410537049174,1996,-52,FCC,1996,-52
326,0.327,-0.0408605262637,-0.0408603139222,-0.0408603139222,1996,-52,FCC,1996,-52
327,0.328,-0.0407649204135,-0.0407643318176,-0.0407643318176,1996,-52,FCC,1996,-52
328,0.329,-0.0411969088018,-0.04119804129,-0.04119804129,1996,-52,FCC,1996,-52
329,0.33,-0.0410006456077,-0.0410003960133,-0.0410003960133,1996,-52,FCC,1996,-52
330,0.331,-0.0406644418836,-0.0406646169722,-0.0406646169722,1997,-51,FCD,1997,-51
331,0.332,-0.0403954796493,-0.04039478302,-0.04039478302,1997,-51,FCD,1997,-51
332,0.333,-0.0402738377452,-0.0402735620737,-0.0402735620737,1997,-51,FCD,1997,-51
333,0.334,-0.0389724783599,-0.0389732159674,-0.0389732159674,1999,-49,FCF,1999,-49
334,0.335,-0.0382934808731,-0.0382918901742,-0.0382918901742,1999,-49,FCF,1999,-49
335,0.336,-0.0383274927735,-0.0383274294436,-0.0383274294436,1999,-49,FCF,1999,-49
336,0.337,-0.037529297173,-0.0375300683081,-0.0375300683081,2000,-48,FD0,2000,-48
337,0.338,-0.0373522564769,-0.0373517945409,-0.0373517945409,2001,-47,FD1,2001,-47
338,0.339,-0.0374034382403,-0.0374035388231,-0.0374035388231,2001,-47,FD1,2001,-47
339,0.34,-0.0373949036002,-0.0373949557543,-0.0373949557543,2001,-47,FD1,2001,-47
340,0.341,-0.0372202657163,-0.0372200347483,-0.0372200347483,2001,-47,FD1,2001,-47
341,0.342,-0.0368627533317,-0.0368621870875,-0.0368621870875,2001,-47,FD1,2001,-47
342,0.343,-0.0363547131419,-0.0363538563251,-0.0363538563251,2002,-46,FD2,2002,-46
343,0.344,-0.0357555411756,-0.035754494369,-0.035754494369,2003,-45,FD3,2003,-45
344,0.345,-0.0359294898808,-0.0359296500683,-0.0359296500683,2002,-46,FD2,2002,-46
345,0.346,-0.0360003635287,-0.0360007062554,-0.0360007062554,2002,-46,FD2,2002,-46
346,0.347,-0.0357197336853,-0.0357192642987,-0.0357192642987,2003,-45,FD3,2003,-45
347,0.348,-0.0364200472832,-0.0364196933806,-0.0364196933806,2002,-46,FD2,2002,-46
348,0.349,-0.0367799550295,-0.0367807373405,-0.0367807373405,2001,-47,FD1,2001,-47
349,0.35,-0.0369425192475,-0.0369428135455,-0.0369428135455,2001,-47,FD1,2001,-47
350,0.351,-0.0343040861189,-0.0343048870564,-0.0343048870564,2004,-44,FD4,2004,-44
351,0.352,-0.0336142927408,-0.0336126126349,-0.0336126126349,2005,-43,FD5,2005,-43
352,0.353,-0.0337577946484,-0.0337579138577,-0.0337579138577,2005,-43,FD5,2005,-43
353,0.354,-0.0341432020068,-0.0341438874602,-0.0341438874602,2005,-43,FD5,2005,-43
354,0.355,-0.0344934053719,-0.0344940945506,-0.0344940945506,2004,-44,FD4,2004,-44
355,0.356,-0.0349846147001,-0.0349856093526,-0.0349856093526,2004,-44,FD4,2004,-44
356,0.357,-0.0353208221495,-0.0353216640651,-0.0353216640651,2003,-45,FD3,2003,-45
357,0.358,-0.0351622626185,-0.0351621173322,-0.0351621173322,2003,-45,FD3,2003,-45
358,0.359,-0.034720543772,-0.0347198322415,-0.0347198322415,2004,-44,FD4,2004,-44
359,0.36,-0.034127600491,-0.0341265760362,-0.0341265760362,2005,-43,FD5,2005,-43
360,0.361,-0.0334863178432,-0.0334851704538,-0.0334851704538,2005,-43,FD5,2005,-43
361,0.362,-0.0334160476923,-0.0334159769118,-0.0334159769118,2006,-42,FD6,2006,-42
362,0.363,-0.0331454090774,-0.0331449657679,-0.0331449657679,2006,-42,FD6,2006,-42
363,0.364,-0.032860647887,-0.0328601077199,-0.0328601077199,2006,-42,FD6,2006,-42
364,0.365,-0.0327007211745,-0.0327003784478,-0.0327003784478,2006,-42,FD6,2006,-42
365,0.366,-0.0327083654702,-0.0327083207667,-0.0327083207667,2006,-42,FD6,2006,-42
366,0.367,-0.0331178121269,-0.0331183373928,-0.0331183373928,2006,-42,FD6,2006,-42
367,0.368,-0.0338233113289,-0.0338247083127,-0.0338247083127,2005,-43,FD5,2005,-43
368,0.369,-0.0342915691435,-0.0342924594879,-0.0342924594879,2004,-44,FD4,2004,-44
369,0.37,-0.0338595695794,-0.0338588282466,-0.0338588282466,2005,-43,FD5,2005,-43
370,0.371,-0.0334923714399,-0.0334915146232,-0.0334915146232,2005,-43,FD5,2005,-43
371,0.372,-0.033481284976,-0.0334812328219,-0.0334812328219,2005,-43,FD5,2005,-43
372,0.373,-0.0344851016998,-0.0344846323133,-0.0344846323133,2004,-44,FD4,2004,-44
373,0.374,-0.0349120423198,-0.0349131561816,-0.0349131561816,2004,-44,FD4,2004,-44
374,0.375,-0.0348261073232,-0.0348260812461,-0.0348260812461,2004,-44,FD4,2004,-44
375,0.376,-0.0356315560639,-0.0356313958764,-0.0356313958764,2003,-45,FD3,2003,-45
376,0.377,-0.0355900339782,-0.0355901271105,-0.0355901271105,2003,-45,FD3,2003,-45
377,0.378,-0.0353974886239,-0.0353965312243,-0.0353965312243,2003,-45,FD3,2003,-45
378,0.379,-0.0354613438249,-0.0354616194963,-0.0354616194963,2003,-45,FD3,2003,-45
379,0.38,-0.035282317549,-0.0352820120752,-0.0352820120752,2003,-45,FD3,2003,-45
380,0.381,-0.0348187796772,-0.0348179154098,-0.0348179154098,2004,-44,FD4,2004,-44
381,0.382,-0.0344096086919,-0.0344086810946,-0.0344086810946,2004,-44,FD4,2004,-44
382,0.383,-0.0344085171819,-0.0344084240496,-0.0344084240496,2004,-44,FD4,2004,-44
383,0.384,-0.034166187048,-0.0341655947268,-0.0341655947268,2005,-43,FD5,2005,-43
384,0.385,-0.0341726951301,-0.034172590822,-0.034172590822,2005,-43,FD5,2005,-43
385,0.386,-0.0343897603452,-0.0343901365995,-0.0343901365995,2004,-44,FD4,2004,-44
386,0.387,-0.0330144837499,-0.0330156944692,-0.0330156944692,2006,-42,FD6,2006,-42
387,0.388,-0.0324667021632,-0.0324655026197,-0.0324655026197,2007,-41,FD7,2007,-41
388,0.389,-0.0321030244231,-0.0321029797196,-0.0321029797196,2007,-41,FD7,2007,-41
389,0.39,-0.0308688394725,-0.030869262293,-0.030869262293,2009,-39,FD9,2009,-39
390,0.391,-0.0302357748151,-0.0302341599017,-0.0302341599017,2009,-39,FD9,2009,-39
391,0.392,-0.0304561462253,-0.0304554589093,-0.0304554589093,2009,-39,FD9,2009,-39
392,0.393,-0.0311859026551,-0.0311877112836,-0.0311877112836,2008,-40,FD8,2008,-40
393,0.394,-0.0309850461781,-0.0309848655015,-0.0309848655015,2009,-39,FD9,2009,-39
394,0.395,-0.0300776138902,-0.0300782211125,-0.0300782211125,2010,-38,FDA,2010,-38
395,0.396,-0.0292252469808,-0.0292235631496,-0.0292235631496,2011,-37,FDB,2011,-37
396,0.397,-0.02872399427,-0.0287229921669,-0.0287229921669,2011,-37,FDB,2011,-37
397,0.398,-0.0299630090594,-0.0299616791308,-0.0299616791308,2010,-38,FDA,2010,-38
398,0.399,-0.0307049266994,-0.0307046640664,-0.0307046640664,2009,-39,FD9,2009,-39
399,0.4,-0.0310605354607,-0.0310612265021,-0.0310612265021,2008,-40,FD8,2008,-40
400,0.401,-0.0296539943665,-0.0296543929726,-0.0296543929726,2010,-38,FDA,2010,-38
401,0.402,-0.0293933507055,-0.0293926242739,-0.0293926242739,2011,-37,FDB,2011,-37
402,0.403,-0.0297887325287,-0.0297890640795,-0.0297890640795,2010,-38,FDA,2010,-38
403,0.404,-0.0306065026671,-0.0306081548333,-0.0306081548333,2009,-39,FD9,2009,-39
404,0.405,-0.0310391690582,-0.0310390032828,-0.0310390032828,2008,-40,FD8,2008,-40
405,0.406,-0.0312087479979,-0.0312091484666,-0.0312091484666,2008,-40,FD8,2008,-40
406,0.407,-0.0311632994562,-0.0311632975936,-0.0311632975936,2008,-40,FD8,2008,-40
407,0.408,-0.0309372991323,-0.0309369601309,-0.0309369601309,2009,-39,FD9,2009,-39
408,0.409,-0.0314661301672,-0.0314673893154,-0.0314673893154,2008,-40,FD8,2008,-40
409,0.41,-0.0315834023058,-0.0315838605165,-0.0315838605165,2008,-40,FD8,2008,-40
410,0.411,-0.031254414469,-0.0312539003789,-0.0312539003789,2008,-40,FD8,2008,-40
411,0.412,-0.0308162644506,-0.0308154784143,-0.0308154784143,2009,-39,FD9,2009,-39
412,0.413,-0.030429571867,-0.0304288417101,-0.0304288417101,2009,-39,FD9,2009,-39
413,0.414,-0.0303512420505,-0.0303504168987,-0.0303504168987,2009,-39,FD9,2009,-39
414,0.415,-0.0313034914434,-0.0313032791018,-0.0313032791018,2008,-40,FD8,2008,-40
415,0.416,-0.0316870249808,-0.0316879190505,-0.0316879190505,2008,-40,FD8,2008,-40
416,0.417,-0.0312055256218,-0.0312056075782,-0.0312056075782,2008,-40,FD8,2008,-40
417,0.418,-0.0301945284009,-0.030194753781,-0.030194753781,2010,-38,FDA,2010,-38
418,0.419,-0.0301008373499,-0.0301004983485,-0.0301004983485,2010,-38,FDA,2010,-38
419,0.42,-0.0303166341037,-0.0303169880062,-0.0303169880062,2009,-39,FD9,2009,-39
420,0.421,-0.0305671878159,-0.0305676683784,-0.0305676683784,2009,-39,FD9,2009,-39
421,0.422,-0.0307218339294,-0.0307221729308,-0.0307221729308,2009,-39,FD9,2009,-39
422,0.423,-0.0302301831543,-0.0302293132991,-0.0302293132991,2009,-39,FD9,2009,-39
423,0.424,-0.02980956994,-0.029808787629,-0.029808787629,2010,-38,FDA,2010,-38
424,0.425,-0.0294264759868,-0.0294258128852,-0.0294258128852,2010,-38,FDA,2010,-38
425,0.426,-0.0284233316779,-0.0284212641418,-0.0284212641418,2012,-36,FDC,2012,-36
426,0.427,-0.0277406349778,-0.0277393497527,-0.0277393497527,2013,-35,FDD,2013,-35
427,0.428,-0.0278827045113,-0.0278813112527,-0.0278813112527,2012,-36,FDC,2012,-36
428,0.429,-0.0293134301901,-0.0293130744249,-0.0293130744249,2011,-37,FDB,2011,-37
429,0.43,-0.0295211300254,-0.0295208785683,-0.0295208785683,2010,-38,FDA,2010,-38
430,0.431,-0.0293706320226,-0.029370309785,-0.029370309785,2011,-37,FDB,2011,-37
431,0.432,-0.0292136520147,-0.0292133353651,-0.0292133353651,2011,-37,FDB,2011,-37
432,0.433,-0.029183100909,-0.0291829891503,-0.0291829891503,2011,-37,FDB,2011,-37
433,0.434,-0.028862465173,-0.0288616791368,-0.0288616791368,2011,-37,FDB,2011,-37
434,0.435,-0.0288382414728,-0.0288380533457,-0.0288380533457,2011,-37,FDB,2011,-37
435,0.436,-0.0291060321033,-0.0291064623743,-0.0291064623743,2011,-37,FDB,2011,-37
436,0.437,-0.028397122398,-0.0283978190273,-0.0283978190273,2012,-36,FDC,2012,-36
437,0.438,-0.0282735507935,-0.0282731857151,-0.0282731857151,2012,-36,FDC,2012,-36
438,0.439,-0.0283828862011,-0.0283830836415,-0.0283830836415,2012,-36,FDC,2012,-36
439,0.44,-0.0284487530589,-0.0284489281476,-0.0284489281476,2012,-36,FDC,2012,-36
440,0.441,-0.0283634085208,-0.0283633302897,-0.0283633302897,2012,-36,FDC,2012,-36
441,0.442,-0.0281029604375,-0.0281025636941,-0.0281025636941,2012,-36,FDC,2012,-36
442,0.443,-0.0276905875653,-0.0276899021119,-0.0276899021119,2013,-35,FDD,2013,-35
443,0.444,-0.0271767862141,-0.0271758958697,-0.0271758958697,2013,-35,FDD,2013,-35
444,0.445,-0.0278153475374,-0.0278147589415,-0.0278147589415,2012,-36,FDC,2012,-36
445,0.446,-0.0282526854426,-0.0282538179308,-0.0282538179308,2012,-36,FDC,2012,-36
446,0.447,-0.0280856788158,-0.028085462749,-0.028085462749,2012,-36,FDC,2012,-36
447,0.448,-0.0283103007823,-0.0283107124269,-0.0283107124269,2012,-36,FDC,2012,-36
448,0.449,-0.0284021608531,-0.0284023638815,-0.0284023638815,2012,-36,FDC,2012,-36
449,0.45,-0.0284829363227,-0.0284830462188,-0.0284830462188,2012,-36,FDC,2012,-36
450,0.451,-0.0286806616932,-0.028680967167,-0.028680967167,2011,-37,FDB,2011,-37
451,0.452,-0.0290063675493,-0.029006915167,-0.029006915167,2011,-37,FDB,2011,-37
452,0.453,-0.0290751345456,-0.0290763806552,-0.0290763806552,2011,-37,FDB,2011,-37
453,0.454,-0.028560847044,-0.0285595897585,-0.0285595897585,2012,-36,FDC,2012,-36
454,0.455,-0.0286519825459,-0.0286520645022,-0.0286520645022,2011,-37,FDB,2011,-37
455,0.456,-0.0288655124605,-0.0288659185171,-0.0288659185171,2011,-37,FDB,2011,-37
456,0.457,-0.028990637511,-0.0289909299463,-0.0289909299463,2011,-37,FDB,2011,-37
457,0.458,-0.0289426203817,-0.0289426147938,-0.0289426147938,2011,-37,FDB,2011,-37
458,0.459,-0.0278105754405,-0.0278119817376,-0.0278119817376,2012,-36,FDC,2012,-36
459,0.46,-0.0268372129649,-0.0268353000283,-0.0268353000283,2014,-34,FDE,2014,-34
460,0.461,-0.0261658467352,-0.0261662118137,-0.0261662118137,2015,-33,FDF,2015,-33
461,0.462,-0.0271797347814,-0.0271787773818,-0.0271787773818,2013,-35,FDD,2013,-35
462,0.463,-0.0273136552423,-0.0273141544312,-0.0273141544312,2013,-35,FDD,2013,-35
463,0.464,-0.027183117345,-0.0271823704243,-0.0271823704243,2013,-35,FDD,2013,-35
464,0.465,-0.0278666559607,-0.0278682429343,-0.0278682429343,2012,-36,FDC,2012,-36
465,0.466,-0.0279376525432,-0.0279378574342,-0.0279378574342,2012,-36,FDC,2012,-36
466,0.467,-0.0279255900532,-0.0279255416244,-0.0279255416244,2012,-36,FDC,2012,-36
467,0.468,-0.028023250401,-0.0280233696103,-0.0280233696103,2012,-36,FDC,2012,-36
468,0.469,-0.0282741244882,-0.0282745212317,-0.0282745212317,2012,-36,FDC,2012,-36
469,0.47,-0.0286509376019,-0.0286515820771,-0.0286515820771,2011,-37,FDB,2011,-37
470,0.471,-0.0290931425989,-0.0290939323604,-0.0290939323604,2011,-37,FDB,2011,-37
471,0.472,-0.0295286681503,-0.0295294746757,-0.0295294746757,2010,-38,FDA,2010,-38
472,0.473,-0.0303812138736,-0.0303808152676,-0.0303808152676,2009,-39,FD9,2009,-39
473,0.474,-0.0308654885739,-0.0308665279299,-0.0308665279299,2009,-39,FD9,2009,-39
474,0.475,-0.0309994462878,-0.0309997908771,-0.0309997908771,2009,-39,FD9,2009,-39
475,0.476,-0.0303330626339,-0.0303313415498,-0.0303313415498,2009,-39,FD9,2009,-39
476,0.477,-0.0298710148782,-0.029870165512,-0.029870165512,2010,-38,FDA,2010,-38
477,0.478,-0.0297913160175,-0.0297900438309,-0.0297900438309,2010,-38,FDA,2010,-38
478,0.479,-0.0303019471467,-0.0303032230586,-0.0303032230586,2009,-39,FD9,2009,-39
479,0.48,-0.0301567744464,-0.030156634748,-0.030156634748,2010,-38,FDA,2010,-38
480,0.481,-0.0307429600507,-0.0307435300201,-0.0307435300201,2009,-39,FD9,2009,-39
481,0.482,-0.0315429680049,-0.0315448045731,-0.0315448045731,2008,-40,FD8,2008,-40
482,0.483,-0.0316397361457,-0.0316400118172,-0.0316400118172,2008,-40,FD8,2008,-40
483,0.484,-0.0302576422691,-0.0302591621876,-0.0302591621876,2009,-39,FD9,2009,-39
484,0.485,-0.0294355936348,-0.029433734715,-0.029433734715,2010,-38,FDA,2010,-38
485,0.486,-0.0293696708977,-0.0293693970889,-0.0293693970889,2011,-37,FDB,2011,-37
486,0.487,-0.0285588558763,-0.0285590849817,-0.0285590849817,2012,-36,FDC,2012,-36
487,0.488,-0.0284670814872,-0.0284667350352,-0.0284667350352,2012,-36,FDC,2012,-36
488,0.489,-0.0286008305848,-0.0286011435091,-0.0286011435091,2012,-36,FDC,2012,-36
489,0.49,-0.0283009614795,-0.0283002890646,-0.0283002890646,2012,-36,FDC,2012,-36
490,0.491,-0.0282262377441,-0.0282261110842,-0.0282261110842,2012,-36,FDC,2012,-36
491,0.492,-0.0283371657133,-0.0283369161189,-0.0283369161189,2012,-36,FDC,2012,-36
492,0.493,-0.0284766871482,-0.0284771639854,-0.0284771639854,2012,-36,FDC,2012,-36
493,0.494,-0.0281675364822,-0.0281670931727,-0.0281670931727,2012,-36,FDC,2012,-36
494,0.495,-0.0288367439061,-0.028838025406,-0.028838025406,2011,-37,FDB,2011,-37
495,0.496,-0.0292074494064,-0.0292084850371,-0.0292084850371,2011,-37,FDB,2011,-37
496,0.497,-0.0289190262556,-0.0289186071604,-0.0289186071604,2011,-37,FDB,2011,-37
497,0.498,-0.0285056065768,-0.0285048484802,-0.0285048484802,2012,-36,FDC,2012,-36
498,0.499,-0.0281988214701,-0.0281982049346,-0.0281982049346,2012,-36,FDC,2012,-36
499,0.5,-0.0280898287892,-0.0280895531178,-0.0280895531178,2012,-36,FDC,2012,-36
500,0.501,-0.027055574581,-0.027056504041,-0.027056504041,2013,-35,FDD,2013,-35
501,0.502,-0.0269422139972,-0.0269417911768,-0.0269417911768,2014,-34,FDE,2014,-34
502,0.503,-0.0272535160184,-0.0272539984435,-0.0272539984435,2013,-35,FDD,2013,-35
503,0.504,-0.027701459825,-0.0277022607625,-0.0277022607625,2013,-35,FDD,2013,-35
504,0.505,-0.0281249452382,-0.0281257461756,-0.0281257461756,2012,-36,FDC,2012,-36
505,0.506,-0.0281163211912,-0.0281166657805,-0.0281166657805,2012,-36,FDC,2012,-36
506,0.507,-0.0278613492846,-0.0278608314693,-0.0278608314693,2012,-36,FDC,2012,-36
507,0.508,-0.0276772044599,-0.0276769064367,-0.0276769064367,2013,-35,FDD,2013,-35
508,0.509,-0.0273985974491,-0.0273981560022,-0.0273981560022,2013,-35,FDD,2013,-35
509,0.51,-0.0269915424287,-0.0269918162376,-0.0269918162376,2014,-34,FDE,2014,-34
510,0.511,-0.0264833755791,-0.026482494548,-0.026482494548,2014,-34,FDE,2014,-34
511,0.512,-0.0264622047544,-0.0264623127878,-0.0264623127878,2014,-34,FDE,2014,-34
512,0.513,-0.0261513851583,-0.0261507127434,-0.0261507127434,2015,-33,FDF,2015,-33
513,0.514,-0.0258390400559,-0.0258376933634,-0.0258376933634,2015,-33,FDF,2015,-33
514,0.515,-0.0260342396796,-0.0260347370058,-0.0260347370058,2015,-33,FDF,2015,-33
515,0.516,-0.0260119717568,-0.0260119400918,-0.0260119400918,2015,-33,FDF,2015,-33
516,0.517,-0.0252932291478,-0.0252943560481,-0.0252943560481,2016,-32,FE0,2016,-32
517,0.518,-0.0241522341967,-0.0241532847285,-0.0241532847285,2017,-31,FE1,2017,-31
518,0.519,-0.0240154080093,-0.0240149572492,-0.0240149572492,2017,-31,FE1,2017,-31
519,0.52,-0.0222808923572,-0.0222821962088,-0.0222821962088,2019,-29,FE3,2019,-29
520,0.521,-0.0210266839713,-0.0210270024836,-0.0210270024836,2021,-27,FE5,2021,-27
521,0.522,-0.0208726767451,-0.0208726413548,-0.0208726413548,2021,-27,FE5,2021,-27
522,0.523,-0.0204781070352,-0.0204782821238,-0.0204782821238,2022,-26,FE6,2022,-26
523,0.524,-0.0202302094549,-0.0202303305268,-0.0202303305268,2022,-26,FE6,2022,-26
524,0.525,-0.0199573095888,-0.019956715405,-0.019956715405,2022,-26,FE6,2022,-26
525,0.526,-0.0195207092911,-0.0195200014859,-0.0195200014859,2023,-25,FE7,2023,-25
526,0.527,-0.01891785115,-0.0189182460308,-0.0189182460308,2024,-24,FE8,2024,-24
527,0.528,-0.0185514055192,-0.0185512304306,-0.0185512304306,2024,-24,FE8,2024,-24
528,0.529,-0.0187686085701,-0.0187693312764,-0.0187693312764,2024,-24,FE8,2024,-24
529,0.53,-0.0184012465179,-0.0184006653726,-0.0184006653726,2024,-24,FE8,2024,-24
530,0.531,-0.0182587057352,-0.0182581469417,-0.0182581469417,2024,-24,FE8,2024,-24
531,0.532,-0.0183211714029,-0.0183213483542,-0.0183213483542,2024,-24,FE8,2024,-24
532,0.533,-0.0183396488428,-0.0183396395296,-0.0183396395296,2024,-24,FE8,2024,-24
533,0.534,-0.0162679962814,-0.016269184649,-0.016269184649,2027,-21,FEB,2027,-21
534,0.535,-0.015185629949,-0.0151857826859,-0.0151857826859,2028,-20,FEC,2028,-20
535,0.536,-0.0152837811038,-0.015283729881,-0.015283729881,2028,-20,FEC,2028,-20
536,0.537,-0.0141886807978,-0.0141898803413,-0.0141898803413,2029,-19,FED,2029,-19
537,0.538,-0.0140568688512,-0.0140563994646,-0.0140563994646,2030,-18,FEE,2030,-18
538,0.539,-0.0142868142575,-0.0142872259021,-0.0142872259021,2029,-19,FED,2029,-19
539,0.54,-0.0144381197169,-0.0144384792075,-0.0144384792075,2029,-19,FED,2029,-19
540,0.541,-0.0143439173698,-0.0143438614905,-0.0143438614905,2029,-19,FED,2029,-19
541,0.542,-0.0134842088446,-0.0134853348136,-0.0134853348136,2030,-18,FEE,2030,-18
542,0.543,-0.0120316063985,-0.012032081373,-0.012032081373,2032,-16,FF0,2032,-16
543,0.544,-0.0110223209485,-0.0110228024423,-0.0110228024423,2033,-15,FF1,2033,-15
544,0.545,-0.0105706984177,-0.0105710905045,-0.0105710905045,2034,-14,FF2,2034,-14
545,0.546,-0.0101537471637,-0.0101530728862,-0.0101530728862,2034,-14,FF2,2034,-14
546,0.547,-0.00964755192399,-0.00964786019176,-0.00964786019176,2035,-13,FF3,2035,-13
547,0.548,-0.00875747390091,-0.00875789672136,-0.00875789672136,2036,-12,FF4,2036,-12
548,0.549,-0.00830531213433,-0.00830543041229,-0.00830543041229,2037,-11,FF5,2037,-11
549,0.55,-0.0082669313997,-0.00826674234122,-0.00826674234122,2037,-11,FF5,2037,-11
550,0.551,-0.00792781542987,-0.007927833125,-0.007927833125,2037,-11,FF5,2037,-11
551,0.552,-0.00812668725848,-0.00812692008913,-0.00812692008913,2037,-11,FF5,2037,-11
552,0.553,-0.00821554195136,-0.00821613892913,-0.00821613892913,2037,-11,FF5,2037,-11
553,0.554,-0.00774514535442,-0.00774517981336,-0.00774517981336,2037,-11,FF5,2037,-11
554,0.555,-0.0078588873148,-0.00785901490599,-0.00785901490599,2037,-11,FF5,2037,-11
555,0.556,-0.00682275509462,-0.00682405568659,-0.00682405568659,2039,-9,FF7,2039,-9
556,0.557,-0.00539470044896,-0.00539514562115,-0.00539514562115,2040,-8,FF8,2040,-8
557,0.558,-0.00485046766698,-0.00485069351271,-0.00485069351271,2041,-7,FF9,2041,-7
558,0.559,-0.00403566053137,-0.00403616251424,-0.00403616251424,2042,-6,FFA,2042,-6
559,0.56,-0.00331631745212,-0.00331667484716,-0.00331667484716,2043,-5,FFB,2043,-5
560,0.561,-0.00269235554151,-0.0026927087456,-0.0026927087456,2044,-4,FFC,2044,-4
561,0.562,-0.00206214305945,-0.00206249579787,-0.00206249579787,2044,-4,FFC,2044,-4
562,0.563,-0.00144129514229,-0.00144163472578,-0.00144163472578,2045,-3,FFD,2045,-3
563,0.564,-0.00115518283565,-0.00115402706433,-0.00115402706433,2046,-2,FFE,2046,-2
564,0.565,-0.00230318284594,-0.00230289669707,-0.00230289669707,2044,-4,FFC,2044,-4
565,0.566,-0.00253749522381,-0.00253745727241,-0.00253745727241,2044,-4,FFC,2044,-4
566,0.567,-0.00208792230114,-0.00208867178299,-0.00208867178299,2044,-4,FFC,2044,-4
567,0.568,-0.00135784503073,-0.00135799543932,-0.00135799543932,2045,-3,FFD,2045,-3
568,0.569,-0.00137865846045,-0.00137851841282,-0.00137851841282,2045,-3,FFD,2045,-3
569,0.57,-0.000959961675107,-0.000960291537922,-0.000960291537922,2046,-2,FFE,2046,-2
570,0.571,-0.000838645093609,-0.000838527397718,-0.000838527397718,2046,-2,FFE,2046,-2
571,0.572,-0.00118878856301,-0.00118856423069,-0.00118856423069,2046,-2,FFE,2046,-2
572,0.573,-0.000132012122776,-0.000132546585519,-0.000132546585519,2047,-1,FFF,2047,-1
573,0.574,0.000325879867887,0.00032578263199,0.00032578263199,2047,-1,FFF,2047,-1
574,0.575,0.000420141033828,0.000420096970629,0.000420096970629,2048,0,000,2048,0
575,0.576,-0.00115325162187,-0.00115281413309,-0.00115281413309,2046,-2,FFE,2046,-2
576,0.577,-0.00144823046867,-0.00144828902557,-0.00144828902557,2045,-3,FFD,2045,-3
577,0.578,-0.00111455633305,-0.00111485749949,-0.00111485749949,2046,-2,FFE,2046,-2
578,0.579,-0.00052787119057,-0.000528227130417,-0.000528227130417,2046,-2,FFE,2046,-2
579,0.58,0.000103292266431,0.000102953403257,0.000102953403257,2047,-1,FFF,2047,-1
580,0.581,2.7199221222e-05,2.76294431387e-05,2.76294431387e-05,2047,-1,FFF,2047,-1
581,0.582,-0.00035831599962,-0.000358245626558,-0.000358245626558,2047,-1,FFF,2047,-1
582,0.583,-0.000423790828791,-0.000423762918217,-0.000423762918217,2046,-2,FFE,2046,-2
583,0.584,-0.000530240125954,-0.000530139892362,-0.000530139892362,2046,-2,FFE,2046,-2
584,0.585,-0.000794629740994,-0.000794431136455,-0.000794431136455,2046,-2,FFE,2046,-2
585,0.586,-0.00122142327018,-0.00122114655096,-0.00122114655096,2045,-3,FFD,2045,-3
586,0.587,-0.00016190102906,-0.000162224037922,-0.000162224037922,2047,-1,FFF,2047,-1
587,0.588,-6.30517170066e-05,-6.29328933428e-05,-6.29328933428e-05,2047,-1,FFF,2047,-1
588,0.589,-0.000608725997154,-0.000607526744716,-0.000607526744716,2046,-2,FFE,2046,-2
589,0.59,-0.00207195640542,-0.0020714327693,-0.0020714327693,2044,-4,FFC,2044,-4
590,0.591,-0.00266799586825,-0.00266781565733,-0.00266781565733,2044,-4,FFC,2044,-4
591,0.592,-0.00302964332514,-0.00302928546444,-0.00302928546444,2043,-5,FFB,2043,-5
592,0.593,-0.0032688616775,-0.00326889916323,-0.00326889916323,2043,-5,FFB,2043,-5
593,0.594,-0.00301817874424,-0.00301839224994,-0.00301839224994,2043,-5,FFB,2043,-5
594,0.595,-0.00176644523162,-0.00176732707769,-0.00176732707769,2045,-3,FFD,2045,-3
595,0.596,-0.000619095517322,-0.000619541970082,-0.000619541970082,2046,-2,FFE,2046,-2
596,0.597,1.32310397021e-05,1.29663003463e-05,1.29663003463e-05,2047,-1,FFF,2047,-1
597,0.598,-0.000615254568402,-0.000614916032646,-0.000614916032646,2046,-2,FFE,2046,-2
598,0.599,-0.000959310273174,-0.000959209282883,-0.000959209282883,2046,-2,FFE,2046,-2
599,0.6,-0.00108617078513,-0.00108610501047,-0.00108610501047,2046,-2,FFE,2046,-2
600,0.601,-0.000655423500575,-0.000655518902931,-0.000655518902931,2046,-2,FFE,2046,-2
601,0.602,-0.000675181858242,-0.00067510077497,-0.00067510077497,2046,-2,FFE,2046,-2
602,0.603,-0.00092579604825,-0.000925619329792,-0.000925619329792,2046,-2,FFE,2046,-2
603,0.604,-0.00126700114924,-0.00126680929679,-0.00126680929679,2045,-3,FFD,2045,-3
604,0.605,-0.00161085219588,-0.00161066884175,-0.00161066884175,2045,-3,FFD,2045,-3
605,0.606,-0.00282674841583,-0.00282556354068,-0.00282556354068,2043,-5,FFB,2043,-5
606,0.607,-0.00415184954181,-0.00415144581348,-0.00415144581348,2042,-6,FFA,2042,-6
607,0.608,-0.00455456692725,-0.00455464283004,-0.00455464283004,2041,-7,FF9,2041,-7
608,0.609,-0.00411535613239,-0.0041156578809,-0.0041156578809,2042,-6,FFA,2042,-6
609,0.61,-0.0036700211931,-0.00367025099695,-0.00367025099695,2042,-6,FFA,2042,-6
610,0.611,-0.00337484898046,-0.00337498262525,-0.00337498262525,2043,-5,FFB,2043,-5
611,0.612,-0.00315173785202,-0.00315185100771,-0.00315185100771,2043,-5,FFB,2043,-5
612,0.613,-0.00298312027007,-0.00298319919966,-0.00298319919966,2043,-5,FFB,2043,-5
613,0.614,-0.00296039530076,-0.00296000437811,-0.00296000437811,2043,-5,FFB,2043,-5
614,0.615,-0.00343384663574,-0.00343369622715,-0.00343369622715,2043,-5,FFB,2043,-5
615,0.616,-0.00360509287566,-0.00360503490083,-0.00360503490083,2043,-5,FFB,2043,-5
616,0.617,-0.00394340138882,-0.00394270615652,-0.00394270615652,2042,-6,FFA,2042,-6
617,0.618,-0.00446396647021,-0.00446377880871,-0.00446377880871,2041,-7,FF9,2041,-7
618,0.619,-0.00471086753532,-0.00471044983715,-0.00471044983715,2041,-7,FF9,2041,-7
619,0.62,-0.00447487505153,-0.00447509251535,-0.00447509251535,2041,-7,FF9,2041,-7
620,0.621,-0.00429052254185,-0.00429054349661,-0.00429054349661,2042,-6,FFA,2042,-6
621,0.622,-0.00432346435264,-0.00432348437607,-0.00432348437607,2042,-6,FFA,2042,-6
622,0.623,-0.00392162101343,-0.00392180448398,-0.00392180448398,2042,-6,FFA,2042,-6
623,0.624,-0.00374400964938,-0.00374404969625,-0.00374404969625,2042,-6,FFA,2042,-6
624,0.625,-0.00370743661188,-0.00370730087161,-0.00370730087161,2042,-6,FFA,2042,-6
625,0.626,-0.00538070453331,-0.00538019277155,-0.00538019277155,2040,-8,FF8,2040,-8
626,0.627,-0.00589956762269,-0.005899425596,-0.005899425596,2040,-8,FF8,2040,-8
627,0.628,-0.00608243141323,-0.00608206121251,-0.00608206121251,2039,-9,FF7,2039,-9
628,0.629,-0.00639281002805,-0.00639234716073,-0.00639234716073,2039,-9,FF7,2039,-9
629,0.63,-0.00635122368112,-0.00635118177161,-0.00635118177161,2039,-9,FF7,2039,-9
630,0.631,-0.00685994466767,-0.00685928110033,-0.00685928110033,2038,-10,FF6,2038,-10
631,0.632,-0.007553325966,-0.00755313085392,-0.00755313085392,2038,-10,FF6,2038,-10
632,0.633,-0.00779855484143,-0.00779849663377,-0.00779849663377,2037,-11,FF5,2037,-11
633,0.634,-0.00661007408053,-0.00661075068638,-0.00661075068638,2039,-9,FF7,2039,-9
634,0.635,-0.0059366854839,-0.0059366254136,-0.0059366254136,2040,-8,FF8,2040,-8
635,0.636,-0.00594005547464,-0.00593993021175,-0.00593993021175,2040,-8,FF8,2040,-8
636,0.637,-0.00564764905721,-0.00564770819619,-0.00564770819619,2040,-8,FF8,2040,-8
637,0.638,-0.00569677073509,-0.00569681124762,-0.00569681124762,2040,-8,FF8,2040,-8
638,0.639,-0.00566778611392,-0.00566866621375,-0.00566866621375,2040,-8,FF8,2040,-8
639,0.64,-0.00470184953883,-0.00470213545486,-0.00470213545486,2041,-7,FF9,2041,-7
640,0.641,-0.00433197291568,-0.00433211773634,-0.00433211773634,2042,-6,FFA,2042,-6
641,0.642,-0.00506196264178,-0.00506071047857,-0.00506071047857,2041,-7,FF9,2041,-7
642,0.643,-0.00646992353722,-0.00646960129961,-0.00646960129961,2039,-9,FF7,2039,-9
643,0.644,-0.00662206765264,-0.00662259291857,-0.00662259291857,2039,-9,FF7,2039,-9
644,0.645,-0.00631642807275,-0.0063166487962,-0.0063166487962,2039,-9,FF7,2039,-9
645,0.646,-0.00590909551829,-0.00590904895216,-0.00590904895216,2040,-8,FF8,2040,-8
646,0.647,-0.00557046337053,-0.00557064590976,-0.00557064590976,2040,-8,FF8,2040,-8
647,0.648,-0.00587404333055,-0.00587383238599,-0.00587383238599,2040,-8,FF8,2040,-8
648,0.649,-0.00611774809659,-0.00611766381189,-0.00611766381189,2039,-9,FF7,2039,-9
649,0.65,-0.00634512398392,-0.00634550722316,-0.00634550722316,2039,-9,FF7,2039,-9
650,0.651,-0.00551167875528,-0.00551187247038,-0.00551187247038,2040,-8,FF8,2040,-8
651,0.652,-0.00549401016906,-0.00549379410222,-0.00549379410222,2040,-8,FF8,2040,-8
652,0.653,-0.00581466220319,-0.00581444567069,-0.00581444567069,2040,-8,FF8,2040,-8
653,0.654,-0.00620548194274,-0.00620529334992,-0.00620529334992,2039,-9,FF7,2039,-9
654,0.655,-0.00652917101979,-0.00652902340516,-0.00652902340516,2039,-9,FF7,2039,-9
655,0.656,-0.00609445897862,-0.00609509879723,-0.00609509879723,2039,-9,FF7,2039,-9
656,0.657,-0.00535411247984,-0.00535436393693,-0.00535436393693,2040,-8,FF8,2040,-8
657,0.658,-0.00498489756137,-0.00498507730663,-0.00498507730663,2041,-7,FF9,2041,-7
658,0.659,-0.00510863680393,-0.00510856928304,-0.00510856928304,2041,-7,FF9,2041,-7
659,0.66,-0.0050205392763,-0.00502049038187,-0.00502049038187,2041,-7,FF9,2041,-7
660,0.661,-0.00467490032315,-0.00467512849718,-0.00467512849718,2041,-7,FF9,2041,-7
661,0.662,-0.00584988994524,-0.00584947643802,-0.00584947643802,2040,-8,FF8,2040,-8
662,0.663,-0.00613068370149,-0.00613069115207,-0.00613069115207,2039,-9,FF7,2039,-9
663,0.664,-0.00609157746658,-0.00609120028093,-0.00609120028093,2039,-9,FF7,2039,-9
664,0.665,-0.00646880827844,-0.00646875379607,-0.00646875379607,2039,-9,FF7,2039,-9
665,0.666,-0.00661798240617,-0.00661792326719,-0.00661792326719,2039,-9,FF7,2039,-9
666,0.667,-0.00632500462234,-0.00632563699037,-0.00632563699037,2039,-9,FF7,2039,-9
667,0.668,-0.00579563062638,-0.00579563342035,-0.00579563342035,2040,-8,FF8,2040,-8
668,0.669,-0.00596807012334,-0.00596777489409,-0.00596777489409,2040,-8,FF8,2040,-8
669,0.67,-0.00600618962198,-0.00600637355819,-0.00600637355819,2040,-8,FF8,2040,-8
670,0.671,-0.00616144761443,-0.00616162456572,-0.00616162456572,2039,-9,FF7,2039,-9
671,0.672,-0.00646260613576,-0.00646226340905,-0.00646226340905,2039,-9,FF7,2039,-9
672,0.673,-0.00766974454746,-0.00766918342561,-0.00766918342561,2037,-11,FF5,2037,-11
673,0.674,-0.0082281799987,-0.00822806358337,-0.00822806358337,2037,-11,FF5,2037,-11
674,0.675,-0.00821815337986,-0.00821827910841,-0.00821827910841,2037,-11,FF5,2037,-11
675,0.676,-0.00734812440351,-0.00734852766618,-0.00734852766618,2038,-10,FF6,2038,-10
676,0.677,-0.00670827180147,-0.00670860521495,-0.00670860521495,2039,-9,FF7,2039,-9
677,0.678,-0.00686741108075,-0.00686602666974,-0.00686602666974,2038,-10,FF6,2038,-10
678,0.679,-0.00831903889775,-0.00831870920956,-0.00831870920956,2037,-11,FF5,2037,-11
679,0.68,-0.00856526661664,-0.00856525450945,-0.00856525450945,2036,-12,FF4,2036,-12
680,0.681,-0.00847620051354,-0.00847601145506,-0.00847601145506,2036,-12,FF4,2036,-12
681,0.682,-0.0084033459425,-0.00840316805989,-0.00840316805989,2037,-11,FF5,2037,-11
682,0.683,-0.00847554113716,-0.00847545173019,-0.00847545173019,2036,-12,FF4,2036,-12
683,0.684,-0.00916386116296,-0.00916280876845,-0.00916280876845,2036,-12,FF4,2036,-12
684,0.685,-0.00982938893139,-0.00982906389982,-0.00982906389982,2035,-13,FF3,2035,-13
685,0.686,-0.0103679774329,-0.0103677082807,-0.0103677082807,2034,-14,FF2,2034,-14
686,0.687,-0.00978483632207,-0.00978501047939,-0.00978501047939,2035,-13,FF3,2035,-13
687,0.688,-0.00974916201085,-0.00974895339459,-0.00974895339459,2035,-13,FF3,2035,-13
688,0.689,-0.0100380992517,-0.0100381877273,-0.0100381877273,2035,-13,FF3,2035,-13
689,0.69,-0.010733245872,-0.0107330139726,-0.0107330139726,2034,-14,FF2,2034,-14
690,0.691,-0.0109282461926,-0.0109287360683,-0.0109287360683,2033,-15,FF1,2033,-15
691,0.692,-0.0113134151325,-0.0113125722855,-0.0113125722855,2033,-15,FF1,2033,-15
692,0.693,-0.0118672419339,-0.0118671869859,-0.0118671869859,2032,-16,FF0,2032,-16
693,0.694,-0.0117180729285,-0.0117179453373,-0.0117179453373,2032,-16,FF0,2032,-16
694,0.695,-0.0113231306896,-0.011322456412,-0.011322456412,2033,-15,FF1,2033,-15
695,0.696,-0.0109010497108,-0.0109002729878,-0.0109002729878,2033,-15,FF1,2033,-15
696,0.697,-0.010565363802,-0.0105647137389,-0.0105647137389,2034,-14,FF2,2034,-14
697,0.698,-0.0098811564967,-0.00988151319325,-0.00988151319325,2035,-13,FF3,2035,-13
698,0.699,-0.0095989452675,-0.00959898624569,-0.00959898624569,2035,-13,FF3,2035,-13
699,0.7,-0.00965811498463,-0.00965816527605,-0.00965816527605,2035,-13,FF3,2035,-13
700,0.701,-0.00876057893038,-0.00876080058515,-0.00876080058515,2036,-12,FF4,2036,-12
701,0.702,-0.00868587195873,-0.00868556182832,-0.00868556182832,2036,-12,FF4,2036,-12
702,0.703,-0.00858273543417,-0.00858353730291,-0.00858353730291,2036,-12,FF4,2036,-12
703,0.704,-0.00791902281344,-0.00791916623712,-0.00791916623712,2037,-11,FF5,2037,-11
704,0.705,-0.00782434921712,-0.00782410614192,-0.00782410614192,2037,-11,FF5,2037,-11
705,0.706,-0.00781865604222,-0.0078186718747,-0.0078186718747,2037,-11,FF5,2037,-11
706,0.707,-0.00771889043972,-0.00771876843646,-0.00771876843646,2037,-11,FF5,2037,-11
707,0.708,-0.00747476657853,-0.00747438613325,-0.00747438613325,2038,-10,FF6,2038,-10
708,0.709,-0.0075478409417,-0.00754773803055,-0.00754773803055,2038,-10,FF6,2038,-10
709,0.71,-0.00737651949748,-0.00737624615431,-0.00737624615431,2038,-10,FF6,2038,-10
710,0.711,-0.00697614252567,-0.00697638699785,-0.00697638699785,2038,-10,FF6,2038,-10
711,0.712,-0.00708217965439,-0.00708252750337,-0.00708252750337,2038,-10,FF6,2038,-10
712,0.713,-0.00696343882009,-0.00696326605976,-0.00696326605976,2038,-10,FF6,2038,-10
713,0.714,-0.00708673987538,-0.00708536198363,-0.00708536198363,2038,-10,FF6,2038,-10
714,0.715,-0.00863139424473,-0.00863089226186,-0.00863089226186,2036,-12,FF4,2036,-12
715,0.716,-0.00924526434392,-0.0092450119555,-0.0092450119555,2036,-12,FF4,2036,-12
716,0.717,-0.00863686297089,-0.00863812398165,-0.00863812398165,2036,-12,FF4,2036,-12
717,0.718,-0.00730311172083,-0.00730340601876,-0.00730340601876,2038,-10,FF6,2038,-10
718,0.719,-0.0071998978965,-0.00719947135076,-0.00719947135076,2038,-10,FF6,2038,-10
719,0.72,-0.00792878121138,-0.0079282457009,-0.0079282457009,2037,-11,FF5,2037,-11
720,0.721,-0.00865821074694,-0.00865791738033,-0.00865791738033,2036,-12,FF4,2036,-12
721,0.722,-0.0090621849522,-0.00906181335449,-0.00906181335449,2036,-12,FF4,2036,-12
722,0.723,-0.00970628205687,-0.0097060315311,-0.0097060315311,2035,-13,FF3,2035,-13
723,0.724,-0.00989612657577,-0.00989678036422,-0.00989678036422,2035,-13,FF3,2035,-13
724,0.725,-0.00972045771778,-0.009720236063,-0.009720236063,2035,-13,FF3,2035,-13
725,0.726,-0.00992548558861,-0.00992550142109,-0.00992550142109,2035,-13,FF3,2035,-13
726,0.727,-0.00968261901289,-0.00968281365931,-0.00968281365931,2035,-13,FF3,2035,-13
727,0.728,-0.00946276541799,-0.0094625595957,-0.0094625595957,2035,-13,FF3,2035,-13
728,0.729,-0.00956642348319,-0.00956677272916,-0.00956677272916,2035,-13,FF3,2035,-13
729,0.73,-0.00945239048451,-0.00945219304413,-0.00945219304413,2035,-13,FF3,2035,-13
730,0.731,-0.0103027401492,-0.0103021562099,-0.0103021562099,2034,-14,FF2,2034,-14
731,0.732,-0.0114864045754,-0.0114860199392,-0.0114860199392,2033,-15,FF1,2033,-15
732,0.733,-0.0120069691911,-0.012006746605,-0.012006746605,2032,-16,FF0,2032,-16
733,0.734,-0.0110261645168,-0.0110267754644,-0.0110267754644,2033,-15,FF1,2033,-15
734,0.735,-0.0105342101306,-0.0105342417955,-0.0105342417955,2034,-14,FF2,2034,-14
735,0.736,-0.0106941238046,-0.010694292374,-0.010694292374,2034,-14,FF2,2034,-14
736,0.737,-0.00998927652836,-0.00998957734555,-0.00998957734555,2035,-13,FF3,2035,-13
737,0.738,-0.00988569296896,-0.00988536514342,-0.00988536514342,2035,-13,FF3,2035,-13
738,0.739,-0.00981794390827,-0.00981923285872,-0.00981923285872,2035,-13,FF3,2035,-13
739,0.74,-0.00881042610854,-0.00881075672805,-0.00881075672805,2036,-12,FF4,2036,-12
740,0.741,-0.00835681613535,-0.00835703406483,-0.00835703406483,2037,-11,FF5,2037,-11
741,0.742,-0.0089568356052,-0.00895527377725,-0.00895527377725,2036,-12,FF4,2036,-12
742,0.743,-0.0102014523,-0.0102011626586,-0.0102011626586,2034,-14,FF2,2034,-14
743,0.744,-0.0101773692295,-0.0101775778458,-0.0101775778458,2034,-14,FF2,2034,-14
744,0.745,-0.0108948713169,-0.0108942845836,-0.0108942845836,2033,-15,FF1,2033,-15
745,0.746,-0.0113108968362,-0.0113108996302,-0.0113108996302,2033,-15,FF1,2033,-15
746,0.747,-0.0111499810591,-0.0111497500911,-0.0111497500911,2033,-15,FF1,2033,-15
747,0.748,-0.0114550674334,-0.0114547070116,-0.0114547070116,2033,-15,FF1,2033,-15
748,0.749,-0.0117088966072,-0.0117087876424,-0.0117087876424,2032,-16,FF0,2032,-16
749,0.75,-0.0120184551924,-0.01201895345,-0.01201895345,2032,-16,FF0,2032,-16
750,0.751,-0.0107775945216,-0.0107775162905,-0.0107775162905,2034,-14,FF2,2034,-14
751,0.752,-0.0107816047966,-0.0107813319191,-0.0107813319191,2034,-14,FF2,2034,-14
752,0.753,-0.0107888616621,-0.0107898078859,-0.0107898078859,2034,-14,FF2,2034,-14
753,0.754,-0.00999644398689,-0.00999661162496,-0.00999661162496,2035,-13,FF3,2035,-13
754,0.755,-0.0100766979158,-0.0100765759125,-0.0100765759125,2034,-14,FF2,2034,-14
755,0.756,-0.0105917910114,-0.0105914454907,-0.0105914454907,2034,-14,FF2,2034,-14
756,0.757,-0.010999834165,-0.010999776423,-0.010999776423,2033,-15,FF1,2033,-15
757,0.758,-0.0108679784462,-0.0108681647107,-0.0108681647107,2034,-14,FF2,2034,-14
758,0.759,-0.0108297411352,-0.0108297253028,-0.0108297253028,2034,-14,FF2,2034,-14
759,0.76,-0.0104158651084,-0.0104152867571,-0.0104152867571,2034,-14,FF2,2034,-14
760,0.761,-0.00970716308802,-0.00970758963376,-0.00970758963376,2035,-13,FF3,2035,-13
761,0.762,-0.0100268675014,-0.0100268302485,-0.0100268302485,2035,-13,FF3,2035,-13
762,0.763,-0.00985003355891,-0.00984972342849,-0.00984972342849,2035,-13,FF3,2035,-13
763,0.764,-0.00972879678011,-0.0097280126065,-0.0097280126065,2035,-13,FF3,2035,-13
764,0.765,-0.0106356851757,-0.010635368526,-0.010635368526,2034,-14,FF2,2034,-14
765,0.766,-0.0110706593841,-0.0110704414546,-0.0110704414546,2033,-15,FF1,2033,-15
766,0.767,-0.0112528428435,-0.0112536521628,-0.0112536521628,2033,-15,FF1,2033,-15
767,0.768,-0.0113764479756,-0.0113764628768,-0.0113764628768,2033,-15,FF1,2033,-15
768,0.769,-0.011903360486,-0.0119030075148,-0.0119030075148,2032,-16,FF0,2032,-16
769,0.77,-0.0117741208524,-0.0117740659043,-0.0117740659043,2032,-16,FF0,2032,-16
770,0.771,-0.0117674972862,-0.0117672868073,-0.0117672868073,2032,-16,FF0,2032,-16
771,0.772,-0.0120776733384,-0.0120782246813,-0.0120782246813,2032,-16,FF0,2032,-16
772,0.773,-0.0118340691552,-0.0118335122243,-0.0118335122243,2032,-16,FF0,2032,-16
773,0.774,-0.011613744311,-0.0116133531556,-0.0116133531556,2033,-15,FF1,2033,-15
774,0.775,-0.0113253947347,-0.0113249439746,-0.0113249439746,2033,-15,FF1,2033,-15
775,0.776,-0.0102977631614,-0.0102982651442,-0.0102982651442,2034,-14,FF2,2034,-14
776,0.777,-0.00948473345488,-0.00948523078114,-0.00948523078114,2035,-13,FF3,2035,-13
777,0.778,-0.00873704813421,-0.00873750820756,-0.00873750820756,2036,-12,FF4,2036,-12
778,0.779,-0.00803667679429,-0.00803701486439,-0.00803701486439,2037,-11,FF5,2037,-11
779,0.78,-0.0074283410795,-0.00742864003405,-0.00742864003405,2038,-10,FF6,2038,-10
780,0.781,-0.00727753294632,-0.00727749988437,-0.00727749988437,2038,-10,FF6,2038,-10
781,0.782,-0.00738513562828,-0.00738539081067,-0.00738539081067,2038,-10,FF6,2038,-10
782,0.783,-0.00743135204539,-0.00743140513077,-0.00743140513077,2038,-10,FF6,2038,-10
783,0.784,-0.00668801413849,-0.00668840343133,-0.00668840343133,2039,-9,FF7,2039,-9
784,0.785,-0.00640769582242,-0.00640787696466,-0.00640787696466,2039,-9,FF7,2039,-9
785,0.786,-0.00665504252538,-0.00665537966415,-0.00665537966415,2039,-9,FF7,2039,-9
786,0.787,-0.00762586621568,-0.00762540660799,-0.00762540660799,2038,-10,FF6,2038,-10
787,0.788,-0.00830170325935,-0.00830140337348,-0.00830140337348,2037,-11,FF5,2037,-11
788,0.789,-0.00844744965434,-0.00844871159643,-0.00844871159643,2037,-11,FF5,2037,-11
789,0.79,-0.00707990070805,-0.00708027789369,-0.00708027789369,2038,-10,FF6,2038,-10
790,0.791,-0.0066122864373,-0.00661246152595,-0.00661246152595,2039,-9,FF7,2039,-9
791,0.792,-0.0068567073904,-0.00685598235577,-0.00685598235577,2038,-10,FF6,2038,-10
792,0.793,-0.00743681192398,-0.00743673695251,-0.00743673695251,2038,-10,FF6,2038,-10
793,0.794,-0.00733568146825,-0.00733559858054,-0.00733559858054,2038,-10,FF6,2038,-10
794,0.795,-0.00695323571563,-0.00695350393653,-0.00695350393653,2038,-10,FF6,2038,-10
795,0.796,-0.00649104639888,-0.00649132393301,-0.00649132393301,2039,-9,FF7,2039,-9
796,0.797,-0.00606611510739,-0.00606630323455,-0.00606630323455,2039,-9,FF7,2039,-9
797,0.798,-0.00624284846708,-0.00624275021255,-0.00624275021255,2039,-9,FF7,2039,-9
798,0.799,-0.00633027544245,-0.00633025262505,-0.00633025262505,2039,-9,FF7,2039,-9
799,0.8,-0.00639171060175,-0.0063918302767,-0.0063918302767,2039,-9,FF7,2039,-9
800,0.801,-0.00654277484864,-0.00654300255701,-0.00654300255701,2039,-9,FF7,2039,-9
801,0.802,-0.00680211698636,-0.00680254539475,-0.00680254539475,2039,-9,FF7,2039,-9
802,0.803,-0.00662949634716,-0.00663069589064,-0.00663069589064,2039,-9,FF7,2039,-9
803,0.804,-0.00558573706076,-0.00558593869209,-0.00558593869209,2040,-8,FF8,2040,-8
804,0.805,-0.00550303515047,-0.0055026547052,-0.0055026547052,2040,-8,FF8,2040,-8
805,0.806,-0.0050768465735,-0.0050774239935,-0.0050774239935,2041,-7,FF9,2041,-7
806,0.807,-0.00449781632051,-0.00449799606577,-0.00449799606577,2041,-7,FF9,2041,-7
807,0.808,-0.00432016607374,-0.00432024104521,-0.00432024104521,2042,-6,FFA,2042,-6
808,0.809,-0.00549716409296,-0.00549647212029,-0.00549647212029,2040,-8,FF8,2040,-8
809,0.81,-0.00607411004603,-0.00607405276969,-0.00607405276969,2039,-9,FF7,2039,-9
810,0.811,-0.00590056786314,-0.00590041419491,-0.00590041419491,2040,-8,FF8,2040,-8
811,0.812,-0.00650440203026,-0.00650426140055,-0.00650426140055,2039,-9,FF7,2039,-9
812,0.813,-0.00643648114055,-0.00643649790436,-0.00643649790436,2039,-9,FF7,2039,-9
813,0.814,-0.0062853670679,-0.00628408882767,-0.00628408882767,2039,-9,FF7,2039,-9
814,0.815,-0.00705372588709,-0.00705348653719,-0.00705348653719,2038,-10,FF6,2038,-10
815,0.816,-0.00727543095127,-0.00727588729933,-0.00727588729933,2038,-10,FF6,2038,-10
816,0.817,-0.00696357851848,-0.00696422625333,-0.00696422625333,2038,-10,FF6,2038,-10
817,0.818,-0.00641612056643,-0.00641616852954,-0.00641616852954,2039,-9,FF7,2039,-9
818,0.819,-0.00660571223125,-0.00660538673401,-0.00660538673401,2039,-9,FF7,2039,-9
819,0.82,-0.00630692020059,-0.0063073374331,-0.0063073374331,2039,-9,FF7,2039,-9
820,0.821,-0.00623759813607,-0.00623723817989,-0.00623723817989,2039,-9,FF7,2039,-9
821,0.822,-0.00656602997333,-0.00656595639884,-0.00656595639884,2039,-9,FF7,2039,-9
822,0.823,-0.00640419498086,-0.00640428718179,-0.00640428718179,2039,-9,FF7,2039,-9
823,0.824,-0.00631120335311,-0.0063110254705,-0.0063110254705,2039,-9,FF7,2039,-9
824,0.825,-0.00617559812963,-0.00617541559041,-0.00617541559041,2039,-9,FF7,2039,-9
825,0.826,-0.00473585305735,-0.0047364551574,-0.0047364551574,2041,-7,FF9,2041,-7
826,0.827,-0.00386476470158,-0.0038651835639,-0.0038651835639,2042,-6,FFA,2042,-6
827,0.828,-0.00283675384708,-0.00283797876909,-0.00283797876909,2043,-5,FFB,2043,-5
828,0.829,-0.00125547533389,-0.00125610851683,-0.00125610851683,2045,-3,FFD,2045,-3
829,0.83,-0.000376210577087,-0.000376594311092,-0.000376594311092,2047,-1,FFF,2047,-1
830,0.831,-0.000127772975247,-0.00012767498265,-0.00012767498265,2047,-1,FFF,2047,-1
831,0.832,-0.000146631660755,-0.000146672944538,-0.000146672944538,2047,-1,FFF,2047,-1
832,0.833,-6.20795981376e-05,-6.21186190983e-05,-6.21186190983e-05,2047,-1,FFF,2047,-1
833,0.834,-3.86239335057e-05,-3.86065185012e-05,-3.86065185012e-05,2047,-1,FFF,2047,-1
834,0.835,-0.000131376669742,-0.000131285618409,-0.000131285618409,2047,-1,FFF,2047,-1
835,0.836,-0.000341008591931,-0.00034086292726,-0.00034086292726,2047,-1,FFF,2047,-1
836,0.837,-0.000105909697595,-0.000105939470814,-0.000105939470814,2047,-1,FFF,2047,-1
837,0.838,-0.000222634305828,-0.000222502101678,-0.000222502101678,2047,-1,FFF,2047,-1
838,0.839,-0.000143819837831,-0.000145565078128,-0.000145565078128,2047,-1,FFF,2047,-1
839,0.84,0.00167955481447,0.00167907320429,0.00167907320429,2049,1,001,2049,1
840,0.841,0.00213971803896,0.0021396165248,0.0021396165248,2050,2,002,2050,2
841,0.842,0.00220476952381,0.00220476440154,0.00220476440154,2050,2,002,2050,2
842,0.843,0.00225621345453,0.00225626677275,0.00225626677275,2050,2,002,2050,2
843,0.844,0.00242789066397,0.00242775119841,0.00242775119841,2050,2,002,2050,2
844,0.845,0.00234467140399,0.00234458874911,0.00234458874911,2050,2,002,2050,2
845,0.846,0.00244678743184,0.0024468197953,0.0024468197953,2050,2,002,2050,2
846,0.847,0.00282953795977,0.0028292927891,0.0028292927891,2051,3,003,2051,3
847,0.848,0.00622727023438,0.00622559059411,0.00622559059411,2055,7,007,2055,7
848,0.849,0.00813276134431,0.00813210289925,0.00813210289925,2057,9,009,2057,9
849,0.85,0.00878350995481,0.00878337025642,0.00878337025642,2058,10,00A,2058,10
850,0.851,0.00948363542557,0.00948395300657,0.00948395300657,2059,11,00B,2059,11
851,0.852,0.00959723629057,0.00959756784141,0.00959756784141,2059,11,00B,2059,11
852,0.853,0.00999089516699,0.00999024417251,0.00999024417251,2059,11,00B,2059,11
853,0.854,0.0112312920392,0.0112309101969,0.0112309101969,2061,13,00D,2061,13
854,0.855,0.0115140769631,0.0115147549659,0.0115147549659,2061,13,00D,2061,13
855,0.856,0.0118226325139,0.0118223028257,0.0118223028257,2062,14,00E,2062,14
856,0.857,0.0121837407351,0.0121845090762,0.0121845090762,2062,14,00E,2062,14
857,0.858,0.0123570645228,0.0123573867604,0.0123573867604,2062,14,00E,2062,14
858,0.859,0.0120908711106,0.0120902424678,0.0120902424678,2062,14,00E,2062,14
859,0.86,0.0120454002172,0.0120451878756,0.0120451878756,2062,14,00E,2062,14
860,0.861,0.0122562171891,0.01225654874,0.01225654874,2062,14,00E,2062,14
861,0.862,0.0114814396948,0.0114816883579,0.0114816883579,2061,13,00D,2061,13
862,0.863,0.0113033149391,0.01130271703,0.01130271703,2061,13,00D,2061,13
863,0.864,0.0111145982519,0.0111159719527,0.0111159719527,2061,13,00D,2061,13
864,0.865,0.00960825011134,0.00960869435221,0.00960869435221,2059,11,00B,2059,11
865,0.866,0.00907247606665,0.00907266139984,0.00907266139984,2058,10,00A,2058,10
866,0.867,0.00927242822945,0.00927179586142,0.00927179586142,2059,11,00B,2059,11
867,0.868,0.00981558766216,0.00981552619487,0.00981552619487,2059,11,00B,2059,11
868,0.869,0.00968093890697,0.00968084670603,0.00968084670603,2059,11,00B,2059,11
869,0.87,0.00887212622911,0.00887268129736,0.00887268129736,2058,10,00A,2058,10
870,0.871,0.0080654239282,0.0080657787621,0.0080657787621,2057,9,009,2057,9
871,0.872,0.00753288902342,0.0075331334956,0.0075331334956,2056,8,008,2056,8
872,0.873,0.00719342986122,0.00719374092296,0.00719374092296,2056,8,008,2056,8
873,0.874,0.00702507048845,0.00702470354736,0.00702470354736,2056,8,008,2056,8
874,0.875,0.00701518077403,0.00701510673389,0.00701510673389,2056,8,008,2056,8
875,0.876,0.00714264111593,0.00714282458648,0.00714282458648,2056,8,008,2056,8
876,0.877,0.00737397745252,0.00737436302006,0.00737436302006,2056,8,008,2056,8
877,0.878,0.00749488221481,0.00749504892156,0.00749504892156,2056,8,008,2056,8
878,0.879,0.00732726277784,0.00732679665089,0.00732679665089,2056,8,008,2056,8
879,0.88,0.00745398877189,0.00745417922735,0.00745417922735,2056,8,008,2056,8
880,0.881,0.00731524080038,0.00731521518901,0.00731521518901,2056,8,008,2056,8
881,0.882,0.00704152835533,0.00704093649983,0.00704093649983,2056,8,008,2056,8
882,0.883,0.00692589906976,0.00692569091916,0.00692569091916,2056,8,008,2056,8
883,0.884,0.00633819773793,0.0063385553658,0.0063385553658,2055,7,007,2055,7
884,0.885,0.00583368120715,0.00583392102271,0.00583392102271,2054,6,006,2054,6
885,0.886,0.005463198293,0.00546339340508,0.00546339340508,2054,6,006,2054,6
886,0.887,0.00565089751035,0.00565087469295,0.00565087469295,2054,6,006,2054,6
887,0.888,0.00554203381762,0.00554186059162,0.00554186059162,2054,6,006,2054,6
888,0.889,0.00556557578966,0.00556428264827,0.00556428264827,2054,6,006,2054,6
889,0.89,0.00690665561706,0.00690628634766,0.00690628634766,2056,8,008,2056,8
890,0.891,0.00724273268133,0.00724267633632,0.00724267633632,2056,8,008,2056,8
891,0.892,0.00778884626925,0.00778804998845,0.00778804998845,2057,9,009,2057,9
892,0.893,0.00869796331972,0.00869766063988,0.00869766063988,2058,10,00A,2058,10
893,0.894,0.00911347940564,0.00911304540932,0.00911304540932,2058,10,00A,2058,10
894,0.895,0.00982799287885,0.0098275039345,0.0098275039345,2059,11,00B,2059,11
895,0.896,0.0104919541627,0.0104916449636,0.0104916449636,2060,12,00C,2060,12
896,0.897,0.0109628485516,0.0109626194462,0.0109626194462,2061,13,00D,2061,13
897,0.898,0.0074219587259,0.00742367003113,0.00742367003113,2056,8,008,2056,8
898,0.899,0.00573015213013,0.00573056330904,0.00573056330904,2054,6,006,2054,6
899,0.9,0.00545678427443,0.00545616680756,0.00545616680756,2054,6,006,2054,6
900,0.901,0.00099924870301,0.00100066361483,0.00100066361483,2048,0,000,2048,0
901,0.902,-0.000556525192223,-0.000556096958462,-0.000556096958462,2046,-2,FFE,2046,-2
902,0.903,-0.00110765418503,-0.00110742764082,-0.00110742764082,2046,-2,FFE,2046,-2
903,0.904,-0.00153011409566,-0.0015298438957,-0.0015298438957,2045,-3,FFD,2045,-3
904,0.905,-0.00211658817716,-0.00211620307527,-0.00211620307527,2044,-4,FFC,2044,-4
905,0.906,-0.00383737054653,-0.00383583153598,-0.00383583153598,2042,-6,FFA,2042,-6
906,0.907,-0.00589807610959,-0.00589721603319,-0.00589721603319,2040,-8,FF8,2040,-8
907,0.908,-0.00717175146565,-0.00717116240412,-0.00717116240412,2038,-10,FF6,2038,-10
908,0.909,-0.00895983632654,-0.00895887054503,-0.00895887054503,2036,-12,FF4,2036,-12
909,0.91,-0.010152971372,-0.0101525345817,-0.0101525345817,2034,-14,FF2,2034,-14
910,0.911,-0.0106714852154,-0.0106713250279,-0.0106713250279,2034,-14,FF2,2034,-14
911,0.912,-0.0129255494103,-0.0129247512668,-0.0129247512668,2031,-17,FEF,2031,-17
912,0.913,-0.0136802345514,-0.013680123724,-0.013680123724,2030,-18,FEE,2030,-18
913,0.914,-0.0135734323412,-0.0135734193027,-0.0135734193027,2030,-18,FEE,2030,-18
914,0.915,-0.0131459906697,-0.013145275414,-0.013145275414,2031,-17,FEF,2031,-17
915,0.916,-0.0126562602818,-0.0126553699374,-0.0126553699374,2031,-17,FEF,2031,-17
916,0.917,-0.0119965132326,-0.0119970962405,-0.0119970962405,2032,-16,FF0,2032,-16
917,0.918,-0.0113045554608,-0.0113047268242,-0.0113047268242,2033,-15,FF1,2033,-15
918,0.919,-0.0110868019983,-0.011086284183,-0.011086284183,2033,-15,FF1,2033,-15
919,0.92,-0.0103545831516,-0.0103550879285,-0.0103550879285,2034,-14,FF2,2034,-14
920,0.921,-0.00994835887104,-0.00994837842882,-0.00994837842882,2035,-13,FF3,2035,-13
921,0.922,-0.0100979404524,-0.0100977774709,-0.0100977774709,2034,-14,FF2,2034,-14
922,0.923,-0.010920483619,-0.0109199946746,-0.0109199946746,2033,-15,FF1,2033,-15
923,0.924,-0.011502453126,-0.0115022147074,-0.0115022147074,2033,-15,FF1,2033,-15
924,0.925,-0.0117998104542,-0.0117995133623,-0.0117995133623,2032,-16,FF0,2032,-16
925,0.926,-0.0113250343129,-0.0113254440948,-0.0113254440948,2033,-15,FF1,2033,-15
926,0.927,-0.0110554229468,-0.011054915376,-0.011054915376,2033,-15,FF1,2033,-15
927,0.928,-0.0111478604376,-0.0111470129341,-0.0111470129341,2033,-15,FF1,2033,-15
928,0.929,-0.0117951519787,-0.0117949815467,-0.0117949815467,2032,-16,FF0,2032,-16
929,0.93,-0.0117425387725,-0.011742583476,-0.011742583476,2032,-16,FF0,2032,-16
930,0.931,-0.0123753715307,-0.012374243699,-0.012374243699,2032,-16,FF0,2032,-16
931,0.932,-0.013180735521,-0.0131805753335,-0.0131805753335,2031,-17,FEF,2031,-17
932,0.933,-0.013251456432,-0.0132517497987,-0.0132517497987,2031,-17,FEF,2031,-17
933,0.934,-0.0136137139052,-0.0136132631451,-0.0136132631451,2030,-18,FEE,2030,-18
934,0.935,-0.0138862580061,-0.0138868084177,-0.0138868084177,2030,-18,FEE,2030,-18
935,0.936,-0.0140957562253,-0.0140961110592,-0.0140961110592,2030,-18,FEE,2030,-18
936,0.937,-0.013847373426,-0.0138466078788,-0.0138466078788,2030,-18,FEE,2030,-18
937,0.938,-0.0139966569841,-0.0139968115836,-0.0139968115836,2030,-18,FEE,2030,-18
938,0.939,-0.0143664395437,-0.0143670691177,-0.0143670691177,2029,-19,FED,2029,-19
939,0.94,-0.0147818373516,-0.0147825954482,-0.0147825954482,2029,-19,FED,2029,-19
940,0.941,-0.0151373716071,-0.0151380533352,-0.0151380533352,2028,-20,FEC,2028,-20
941,0.942,-0.0158561747521,-0.0158553104848,-0.0158553104848,2027,-21,FEB,2027,-21
942,0.943,-0.0167747735977,-0.016774546355,-0.016774546355,2026,-22,FEA,2026,-22
943,0.944,-0.0169359669089,-0.0169364158064,-0.0169364158064,2026,-22,FEA,2026,-22
944,0.945,-0.0163479540497,-0.0163483377546,-0.0163483377546,2027,-21,FEB,2027,-21
945,0.946,-0.0156759358943,-0.0156762488186,-0.0156762488186,2028,-20,FEC,2028,-20
946,0.947,-0.0151834432036,-0.0151825174689,-0.0151825174689,2028,-20,FEC,2028,-20
947,0.948,-0.0157751590014,-0.015774499625,-0.015774499625,2027,-21,FEB,2027,-21
948,0.949,-0.0159797072411,-0.0159802418202,-0.0159802418202,2027,-21,FEB,2027,-21
949,0.95,-0.015908818692,-0.0159087181091,-0.0159087181091,2027,-21,FEB,2027,-21
950,0.951,-0.0129798138514,-0.0129808206111,-0.0129808206111,2031,-17,FEF,2031,-17
951,0.952,-0.0119848689064,-0.0119851119816,-0.0119851119816,2032,-16,FF0,2032,-16
952,0.953,-0.0120270522311,-0.0120264226571,-0.0120264226571,2032,-16,FF0,2032,-16
953,0.954,-0.0126872854307,-0.0126870116219,-0.0126870116219,2031,-17,FEF,2031,-17
954,0.955,-0.0130895236507,-0.0130893485621,-0.0130893485621,2031,-17,FEF,2031,-17
955,0.956,-0.0130155254155,-0.0130157023668,-0.0130157023668,2031,-17,FEF,2031,-17
956,0.957,-0.0127327581868,-0.0127321621403,-0.0127321621403,2031,-17,FEF,2031,-17
957,0.958,-0.0125901764259,-0.0125899212435,-0.0125899212435,2031,-17,FEF,2031,-17
958,0.959,-0.0115332221612,-0.0115338759497,-0.0115338759497,2033,-15,FF1,2033,-15
959,0.96,-0.0107340235263,-0.0107343206182,-0.0107343206182,2034,-14,FF2,2034,-14
960,0.961,-0.0102903274819,-0.0102905342355,-0.0102905342355,2034,-14,FF2,2034,-14
961,0.962,-0.0126146869734,-0.0126137929037,-0.0126137929037,2031,-17,FEF,2031,-17
962,0.963,-0.0134300142527,-0.0134298847988,-0.0134298847988,2030,-18,FEE,2030,-18
963,0.964,-0.0136049389839,-0.0136041231453,-0.0136041231453,2030,-18,FEE,2030,-18
964,0.965,-0.014434736222,-0.0144344335422,-0.0144344335422,2029,-19,FED,2029,-19
965,0.966,-0.0145777873695,-0.0145781412721,-0.0145781412721,2029,-19,FED,2029,-19
966,0.967,-0.0138663202524,-0.0138678532094,-0.0138678532094,2030,-18,FEE,2030,-18
967,0.968,-0.0127044357359,-0.0127047421411,-0.0127047421411,2031,-17,FEF,2031,-17
968,0.969,-0.0125726656988,-0.0125722065568,-0.0125722065568,2031,-17,FEF,2031,-17
969,0.97,-0.0120784398168,-0.0120787713677,-0.0120787713677,2032,-16,FF0,2032,-16
970,0.971,-0.0118817398325,-0.0118811307475,-0.0118811307475,2032,-16,FF0,2032,-16
971,0.972,-0.0121324220672,-0.0121328225359,-0.0121328225359,2032,-16,FF0,2032,-16
972,0.973,-0.0119359698147,-0.0119354873896,-0.0119354873896,2032,-16,FF0,2032,-16
973,0.974,-0.0118463831022,-0.0118461996317,-0.0118461996317,2032,-16,FF0,2032,-16
974,0.975,-0.0117449443787,-0.0117448139936,-0.0117448139936,2032,-16,FF0,2032,-16
975,0.976,-0.0120677696541,-0.0120677659288,-0.0120677659288,2032,-16,FF0,2032,-16
976,0.977,-0.0118600893766,-0.011859738268,-0.011859738268,2032,-16,FF0,2032,-16
977,0.978,-0.0120652224869,-0.0120635991916,-0.0120635991916,2032,-16,FF0,2032,-16
978,0.979,-0.0133794229478,-0.0133791873232,-0.0133791873232,2030,-18,FEE,2030,-18
979,0.98,-0.013405974023,-0.0134062450379,-0.0134062450379,2030,-18,FEE,2030,-18
980,0.981,-0.0140066025779,-0.0140057755634,-0.0140057755634,2030,-18,FEE,2030,-18
981,0.982,-0.0148530965671,-0.0148528730497,-0.0148528730497,2029,-19,FED,2029,-19
982,0.983,-0.0150937046856,-0.0150941964239,-0.0150941964239,2028,-20,FEC,2028,-20
983,0.984,-0.0148531496525,-0.0148525517434,-0.0148525517434,2029,-19,FED,2029,-19
984,0.985,-0.0149284703657,-0.014928298071,-0.014928298071,2028,-20,FEC,2028,-20
985,0.986,-0.015384376049,-0.0153851024806,-0.0153851024806,2028,-20,FEC,2028,-20
986,0.987,-0.01815360412,-0.018152365461,-0.018152365461,2024,-24,FE8,2024,-24
987,0.988,-0.0197284948081,-0.0197279192507,-0.0197279192507,2023,-25,FE7,2023,-25
988,0.989,-0.021358512342,-0.0213538482785,-0.0213538482785,2021,-27,FE5,2020,-28
989,0.99,-0.0265444833785,-0.0265428479761,-0.0265428479761,2014,-34,FDE,2014,-34
990,0.991,-0.0282407123595,-0.028240300715,-0.028240300715,2012,-36,FDC,2012,-36
991,0.992,-0.0295641869307,-0.0295626204461,-0.0295626204461,2010,-38,FDA,2010,-38
992,0.993,-0.0311237107962,-0.0311233270913,-0.0311233270913,2008,-40,FD8,2008,-40
993,0.994,-0.031381379813,-0.031382072717,-0.031382072717,2008,-40,FD8,2008,-40
994,0.995,-0.0336472056806,-0.0336454957724,-0.0336454957724,2005,-43,FD5,2005,-43
995,0.996,-0.0354558676481,-0.0354553312063,-0.0354553312063,2003,-45,FD3,2003,-45
996,0.997,-0.0360216461122,-0.0360228605568,-0.0360228605568,2002,-46,FD2,2002,-46
997,0.998,-0.0397397056222,-0.0397378914058,-0.0397378914058,1998,-50,FCE,1998,-50
998,0.999,-0.0418336167932,-0.0418328978121,-0.0418328978121,1995,-53,FCB,1995,-53
999,1.0,-0.0427450165153,-0.0427468530834,-0.0427468530834,1994,-54,FCA,1994,-54
1000,1.001,-0.0461879447103,-0.0461864694953,-0.0461864694953,1990,-58,FC6,1990,-58
1001,1.002,-0.0477523989975,-0.0477518327534,-0.0477518327534,1988,-60,FC4,1988,-60
1002,1.003,-0.0475501529872,-0.0475523509085,-0.0475523509085,1988,-60,FC4,1988,-60
1003,1.004,-0.045288067311,-0.0452886559069,-0.0452886559069,1991,-57,FC7,1991,-57
1004,1.005,-0.0448784083128,-0.0448770560324,-0.0448770560324,1991,-57,FC7,1991,-57
1005,1.006,-0.0394792594016,-0.0394854061306,-0.0394854061306,1998,-50,FCE,1998,-50
1006,1.007,-0.0328877754509,-0.0328896865249,-0.0328896865249,2006,-42,FD6,2006,-42
1007,1.008,-0.0309390127659,-0.0309395138174,-0.0309395138174,2009,-39,FD9,2009,-39
1008,1.009,-0.0200914405286,-0.0200978126377,-0.0200978126377,2022,-26,FE6,2022,-26
1009,1.01,-0.0130761042237,-0.0130783217028,-0.0130783217028,2031,-17,FEF,2031,-17
1010,1.011,-0.01050985232,-0.010510770604,-0.010510770604,2034,-14,FF2,2034,-14
1011,1.012,0.00582729000598,0.00582053046674,0.00582053046674,2054,6,006,2054,6
1012,1.013,0.0135912299156,0.0135885644704,0.0135885644704,2064,16,010,2064,16
1013,1.014,0.0195883437991,0.0195730663836,0.0195730663836,2071,23,017,2071,23
1014,1.015,0.0370766222477,0.0370707623661,0.0370707623661,2093,45,02D,2093,45
1015,1.016,0.0440095365047,0.0440070331097,0.0440070331097,2102,54,036,2102,54
1016,1.017,0.0595512278378,0.0595303438604,0.0595303438604,2121,73,049,2121,73
1017,1.018,0.0830368027091,0.0830292180181,0.0830292180181,2150,102,066,2150,102
1018,1.019,0.0915179550648,0.0915151908994,0.0915151908994,2161,113,071,2161,113
1019,1.02,0.115025021136,0.115008577704,0.115008577704,2190,142,08E,2190,142
1020,1.021,0.133178278804,0.133172571659,0.133172571659,2212,164,0A4,2212,164
1021,1.022,0.13946326077,0.139457121491,0.139457121491,2220,172,0AC,2220,172
1022,1.023,0.164699435234,0.164687275887,0.164687275887,2251,203,0CB,2251,203
1023,1.024,0.17832775414,0.178322851658,0.178322851658,2268,220,0DC,2268,220
1024,1.025,0.183675989509,0.183673933148,0.183673933148,2275,227,0E3,2275,227
1025,1.026,0.204374432564,0.204366907477,0.204366907477,2301,253,0FD,2301,253
1026,1.027,0.213406249881,0.213403016329,0.213403016329,2312,264,108,2312,264
1027,1.028,0.220245733857,0.220238044858,0.220238044858,2320,272,110,2320,272
1028,1.029,0.229740649462,0.22973702848,0.22973702848,2332,284,11C,2332,284
1029,1.03,0.234647348523,0.23466026783,0.23466026783,2338,290,122,2338,290
1030,1.031,0.235613137484,0.235614046454,0.235614046454,2339,291,123,2339,291
1031,1.032,0.235194340348,0.235192924738,0.235192924738,2339,291,123,2339,291
1032,1.033,0.235906720161,0.23590798676,0.23590798676,2340,292,124,2340,292
1033,1.034,0.223047956824,0.223055824637,0.223055824637,2324,276,114,2324,276
1034,1.035,0.214327275753,0.21433006227,0.21433006227,2313,265,109,2313,265
1035,1.036,0.210946530104,0.210939690471,0.210939690471,2309,261,105,2309,261
1036,1.037,0.18050134182,0.180513963103,0.180513963103,2271,223,0DF,2271,223
1037,1.038,0.166046753526,0.1660489887,0.1660489887,2253,205,0CD,2253,205
1038,1.039,0.15402007103,0.15405228734,0.15405228734,2238,190,0BE,2238,190
1039,1.04,0.115837730467,0.115850321949,0.115850321949,2191,143,08F,2191,143
1040,1.041,0.101227931678,0.101233035326,0.101233035326,2173,125,07D,2173,125
1041,1.042,0.0811662226915,0.0811904147267,0.0811904147267,2148,100,064,2148,100
1042,1.043,0.0533367805183,0.053346209228,0.053346209228,2113,65,041,2113,65
1043,1.044,0.0419189743698,0.0419232733548,0.0419232733548,2099,51,033,2099,51
1044,1.045,0.0232018176466,0.0232141464949,0.0232141464949,2076,28,01C,2076,28
1045,1.046,0.00831439811736,0.00831990037113,0.00831990037113,2057,9,009,2057,9
1046,1.047,0.0009670490399,0.000970201217569,0.000970201217569,2048,0,000,2048,0
1047,1.048,-0.0156694147736,-0.0156616400927,-0.0156616400927,2028,-20,FEC,2028,-20
1048,1.049,-0.0257107019424,-0.025707077235,-0.025707077235,2015,-33,FDF,2015,-33
1049,1.05,-0.0307422187179,-0.0307399574667,-0.0307399574667,2009,-39,FD9,2009,-39
1050,1.051,-0.0405619554222,-0.0405582711101,-0.0405582711101,1997,-51,FCD,1997,-51
1051,1.052,-0.0449200868607,-0.0449185483158,-0.0449185483158,1991,-57,FC7,1991,-57
1052,1.053,-0.047585003078,-0.0475824140012,-0.0475824140012,1988,-60,FC4,1988,-60
1053,1.054,-0.0505576692522,-0.0505568236113,-0.0505568236113,1984,-64,FC0,1984,-64
1054,1.055,-0.051237180829,-0.051238913089,-0.051238913089,1983,-65,FBF,1983,-65
1055,1.056,-0.0496954061091,-0.0496978834271,-0.0496978834271,1985,-63,FC1,1985,-63
1056,1.057,-0.047477081418,-0.0474790111184,-0.0474790111184,1988,-60,FC4,1988,-60
1057,1.058,-0.0462240204215,-0.0462215654552,-0.0462215654552,1990,-58,FC6,1990,-58
1058,1.059,-0.0427183099091,-0.042720220983,-0.042720220983,1994,-54,FCA,1994,-54
1059,1.06,-0.0404340438545,-0.0404347889125,-0.0404347889125,1997,-51,FCD,1997,-51
1060,1.061,-0.0395936183631,-0.0395936854184,-0.0395936854184,1998,-50,FCE,1998,-50
1061,1.062,-0.0356052778661,-0.0356065444648,-0.0356065444648,2003,-45,FD3,2003,-45
1062,1.063,-0.0339955352247,-0.033995937556,-0.033995937556,2005,-43,FD5,2005,-43
1063,1.064,-0.0336332470179,-0.0336323864758,-0.0336323864758,2005,-43,FD5,2005,-43
1064,1.065,-0.0336233079433,-0.0336232706904,-0.0336232706904,2005,-43,FD5,2005,-43
1065,1.066,-0.0336011871696,-0.033601205796,-0.033601205796,2005,-43,FD5,2005,-43
1066,1.067,-0.0331861376762,-0.0331856310368,-0.0331856310368,2006,-42,FD6,2006,-42
1067,1.068,-0.0324141681194,-0.0324127003551,-0.0324127003551,2007,-41,FD7,2007,-41
1068,1.069,-0.031788431108,-0.0317887924612,-0.0317887924612,2008,-40,FD8,2008,-40
1069,1.07,-0.0315699093044,-0.0315692611039,-0.0315692611039,2008,-40,FD8,2008,-40
1070,1.071,-0.0312787331641,-0.0312783308327,-0.0312783308327,2008,-40,FD8,2008,-40
1071,1.072,-0.0308014061302,-0.0308005698025,-0.0308005698025,2009,-39,FD9,2009,-39
1072,1.073,-0.029356578365,-0.0293572731316,-0.0293572731316,2011,-37,FDB,2011,-37
1073,1.074,-0.0285077281296,-0.0285059455782,-0.0285059455782,2012,-36,FDC,2012,-36
1074,1.075,-0.0281978156418,-0.028197132051,-0.028197132051,2012,-36,FDC,2012,-36
1075,1.076,-0.0281778126955,-0.0281777046621,-0.0281777046621,2012,-36,FDC,2012,-36
1076,1.077,-0.028324091807,-0.0283243153244,-0.0283243153244,2012,-36,FDC,2012,-36
1077,1.078,-0.0285565778613,-0.0285569820553,-0.0285569820553,2012,-36,FDC,2012,-36
1078,1.079,-0.028811590746,-0.02881205827,-0.02881205827,2011,-37,FDB,2011,-37
1079,1.08,-0.0290357042104,-0.0290361344814,-0.0290361344814,2011,-37,FDB,2011,-37
1080,1.081,-0.0301170926541,-0.0301159117371,-0.0301159117371,2010,-38,FDA,2010,-38
1081,1.082,-0.0313054285944,-0.0313052497804,-0.0313052497804,2008,-40,FD8,2008,-40
1082,1.083,-0.0315783694386,-0.0315792486072,-0.0315792486072,2008,-40,FD8,2008,-40
1083,1.084,-0.0305758733302,-0.0305765215307,-0.0305765215307,2009,-39,FD9,2009,-39
1084,1.085,-0.0297464150935,-0.0297444649041,-0.0297444649041,2010,-38,FDA,2010,-38
1085,1.086,-0.0292933173478,-0.0292924363166,-0.0292924363166,2011,-37,FDB,2011,-37
1086,1.087,-0.0289965681732,-0.028996007517,-0.028996007517,2011,-37,FDB,2011,-37
1087,1.088,-0.0287788342685,-0.0287784263492,-0.0287784263492,2011,-37,FDB,2011,-37
1088,1.089,-0.0286152847111,-0.0286149792373,-0.0286149792373,2011,-37,FDB,2011,-37
1089,1.09,-0.0284980069846,-0.0284977853298,-0.0284977853298,2012,-36,FDC,2012,-36
1090,1.091,-0.0284221544862,-0.0284220091999,-0.0284220091999,2012,-36,FDC,2012,-36
1091,1.092,-0.0278926994652,-0.0278922375292,-0.0278922375292,2012,-36,FDC,2012,-36
1092,1.093,-0.0270295646042,-0.0270277000964,-0.0270277000964,2013,-35,FDD,2013,-35
1093,1.094,-0.0267719533294,-0.0267713852227,-0.0267713852227,2014,-34,FDE,2014,-34
1094,1.095,-0.0283071398735,-0.0283059943467,-0.0283059943467,2012,-36,FDC,2012,-36
1095,1.096,-0.0295763686299,-0.0295751597732,-0.0295751597732,2010,-38,FDA,2010,-38
1096,1.097,-0.0298958159983,-0.0298965889961,-0.0298965889961,2010,-38,FDA,2010,-38
1097,1.098,-0.0313326530159,-0.0313310064375,-0.0313310064375,2008,-40,FD8,2008,-40
1098,1.099,-0.0319383256137,-0.0319397374988,-0.0319397374988,2007,-41,FD7,2007,-41
1099,1.1,-0.0319714806974,-0.0319716334343,-0.0319716334343,2007,-41,FD7,2007,-41
1100,1.101,-0.0318618044257,-0.0318616181612,-0.0318616181612,2007,-41,FD7,2007,-41
1101,1.102,-0.0317791476846,-0.0317789763212,-0.0317789763212,2008,-40,FD8,2008,-40
1102,1.103,-0.0314387753606,-0.0314390137792,-0.0314390137792,2008,-40,FD8,2008,-40
1103,1.104,-0.0305839367211,-0.0305820312351,-0.0305820312351,2009,-39,FD9,2009,-39
1104,1.105,-0.0304489526898,-0.0304485782981,-0.0304485782981,2009,-39,FD9,2009,-39
1105,1.106,-0.0302641987801,-0.0302640087903,-0.0302640087903,2009,-39,FD9,2009,-39
1106,1.107,-0.0300614498556,-0.0300609618425,-0.0300609618425,2010,-38,FDA,2010,-38
1107,1.108,-0.0300750602037,-0.0300750751048,-0.0300750751048,2010,-38,FDA,2010,-38
1108,1.109,-0.0296315215528,-0.0296305827796,-0.0296305827796,2010,-38,FDA,2010,-38
1109,1.11,-0.0292512830347,-0.0292505454272,-0.0292505454272,2011,-37,FDB,2011,-37
1110,1.111,-0.0289584994316,-0.0289579872042,-0.0289579872042,2011,-37,FDB,2011,-37
1111,1.112,-0.0302258208394,-0.0302253477275,-0.0302253477275,2009,-39,FD9,2009,-39
1112,1.113,-0.0305108353496,-0.0305118467659,-0.0305118467659,2009,-39,FD9,2009,-39
1113,1.114,-0.0300744473934,-0.0300756283104,-0.0300756283104,2010,-38,FDA,2010,-38
1114,1.115,-0.0286146271974,-0.028615327552,-0.028615327552,2011,-37,FDB,2011,-37
1115,1.116,-0.0279081724584,-0.0279067289084,-0.0279067289084,2012,-36,FDC,2012,-36
1116,1.117,-0.0270879659802,-0.0270892959088,-0.0270892959088,2013,-35,FDD,2013,-35
1117,1.118,-0.026130694896,-0.0261285975575,-0.0261285975575,2015,-33,FDF,2015,-33
1118,1.119,-0.0259126238525,-0.0259120836854,-0.0259120836854,2015,-33,FDF,2015,-33
1119,1.12,-0.0252022687346,-0.0252031758428,-0.0252031758428,2016,-32,FE0,2016,-32
1120,1.121,-0.0247449949384,-0.0247439220548,-0.0247439220548,2016,-32,FE0,2016,-32
1121,1.122,-0.0247440971434,-0.0247440356761,-0.0247440356761,2016,-32,FE0,2016,-32
1122,1.123,-0.0263105016202,-0.0263097397983,-0.0263097397983,2014,-34,FDE,2014,-34
1123,1.124,-0.0270976163447,-0.0270993821323,-0.0270993821323,2013,-35,FDD,2013,-35
1124,1.125,-0.0272019281983,-0.0272022690624,-0.0272022690624,2013,-35,FDD,2013,-35
1125,1.126,-0.0270009413362,-0.0270006526262,-0.0270006526262,2013,-35,FDD,2013,-35
1126,1.127,-0.0266705173999,-0.0266699530184,-0.0266699530184,2014,-34,FDE,2014,-34
1127,1.128,-0.0268205069005,-0.0268192328513,-0.0268192328513,2014,-34,FDE,2014,-34
1128,1.129,-0.0279038622975,-0.027903130278,-0.027903130278,2012,-36,FDC,2012,-36
1129,1.13,-0.0280755702406,-0.0280760396272,-0.0280760396272,2012,-36,FDC,2012,-36
1130,1.131,-0.0283048842102,-0.0283050630242,-0.0283050630242,2012,-36,FDC,2012,-36
1131,1.132,-0.0286127831787,-0.0286126937717,-0.0286126937717,2011,-37,FDB,2011,-37
1132,1.133,-0.0287545714527,-0.028754286468,-0.028754286468,2011,-37,FDB,2011,-37
1133,1.134,-0.0289204157889,-0.028920693323,-0.028920693323,2011,-37,FDB,2011,-37
1134,1.135,-0.0291554518044,-0.0291558541358,-0.0291558541358,2011,-37,FDB,2011,-37
1135,1.136,-0.0294423829764,-0.0294422190636,-0.0294422190636,2010,-38,FDA,2010,-38
1136,1.137,-0.0276071596891,-0.027607774362,-0.027607774362,2013,-35,FDD,2013,-35
1137,1.138,-0.0269630942494,-0.0269631780684,-0.0269631780684,2014,-34,FDE,2014,-34
1138,1.139,-0.0269116144627,-0.0269114486873,-0.0269114486873,2014,-34,FDE,2014,-34
1139,1.14,-0.0269555207342,-0.0269556306303,-0.0269556306303,2014,-34,FDE,2014,-34
1140,1.141,-0.0268960744143,-0.0268960352987,-0.0268960352987,2014,-34,FDE,2014,-34
1141,1.142,-0.0269143134356,-0.0269140321761,-0.0269140321761,2014,-34,FDE,2014,-34
1142,1.143,-0.0269512236118,-0.0269515067339,-0.0269515067339,2014,-34,FDE,2014,-34
1143,1.144,-0.0265746712685,-0.0265740882605,-0.0265740882605,2014,-34,FDE,2014,-34
1144,1.145,-0.0268337819725,-0.0268341787159,-0.0268341787159,2014,-34,FDE,2014,-34
1145,1.146,-0.0269277002662,-0.026928095147,-0.026928095147,2014,-34,FDE,2014,-34
1146,1.147,-0.0266416054219,-0.02664113231,-0.02664113231,2014,-34,FDE,2014,-34
1147,1.148,-0.0273255817592,-0.0273255128413,-0.0273255128413,2013,-35,FDD,2013,-35
1148,1.149,-0.0276693105698,-0.0276702884585,-0.0276702884585,2013,-35,FDD,2013,-35
1149,1.15,-0.0278234388679,-0.0278237108141,-0.0278237108141,2012,-36,FDC,2012,-36
1150,1.151,-0.0263275820762,-0.0263280477375,-0.0263280477375,2014,-34,FDE,2014,-34
1151,1.152,-0.026056503877,-0.0260555427521,-0.0260555427521,2015,-33,FDF,2015,-33
1152,1.153,-0.0266733169556,-0.0266736149788,-0.0266736149788,2014,-34,FDE,2014,-34
1153,1.154,-0.0280590206385,-0.0280584841967,-0.0280584841967,2012,-36,FDC,2012,-36
1154,1.155,-0.0287604220212,-0.0287618581206,-0.0287618581206,2011,-37,FDB,2011,-37
1155,1.156,-0.0287831351161,-0.0287836007774,-0.0287836007774,2011,-37,FDB,2011,-37
1156,1.157,-0.0284832455218,-0.0284826550633,-0.0284826550633,2012,-36,FDC,2012,-36
1157,1.158,-0.0282503142953,-0.0282499212772,-0.0282499212772,2012,-36,FDC,2012,-36
1158,1.159,-0.0283964797854,-0.028396865353,-0.028396865353,2012,-36,FDC,2012,-36
1159,1.16,-0.0282890088856,-0.0282889623195,-0.0282889623195,2012,-36,FDC,2012,-36
1160,1.161,-0.0279080420732,-0.0279074162245,-0.0279074162245,2012,-36,FDC,2012,-36
1161,1.162,-0.0279739312828,-0.0279737580568,-0.0279737580568,2012,-36,FDC,2012,-36
1162,1.163,-0.0277540143579,-0.0277536865324,-0.0277536865324,2013,-35,FDD,2013,-35
1163,1.164,-0.0273641403764,-0.0273639615625,-0.0273639615625,2013,-35,FDD,2013,-35
1164,1.165,-0.0266127269715,-0.0266111437231,-0.0266111437231,2014,-34,FDE,2014,-34
1165,1.166,-0.0263574589044,-0.0263568814844,-0.0263568814844,2014,-34,FDE,2014,-34
1166,1.167,-0.0258865468204,-0.0258861612529,-0.0258861612529,2015,-33,FDF,2015,-33
1167,1.168,-0.0252140853554,-0.0252125281841,-0.0252125281841,2016,-32,FE0,2016,-32
1168,1.169,-0.0252128355205,-0.0252127144486,-0.0252127144486,2016,-32,FE0,2016,-32
1169,1.17,-0.0254323109984,-0.0254326853901,-0.0254326853901,2015,-33,FDF,2015,-33
1170,1.171,-0.0256640911102,-0.0256645381451,-0.0256645381451,2015,-33,FDF,2015,-33
1171,1.172,-0.0258063729852,-0.0258066821843,-0.0258066821843,2015,-33,FDF,2015,-33
1172,1.173,-0.0253207683563,-0.0253197718412,-0.0253197718412,2016,-32,FE0,2016,-32
1173,1.174,-0.0249278433621,-0.0249271001667,-0.0249271001667,2016,-32,FE0,2016,-32
1174,1.175,-0.0245920401067,-0.0245914552361,-0.0245914552361,2016,-32,FE0,2016,-32
1175,1.176,-0.0236504264176,-0.0236514098942,-0.0236514098942,2018,-30,FE2,2018,-30
1176,1.177,-0.0230362564325,-0.0230350848287,-0.0230350848287,2018,-30,FE2,2018,-30
1177,1.178,-0.0230750329792,-0.0230739805847,-0.0230739805847,2018,-30,FE2,2018,-30
1178,1.179,-0.0240929871798,-0.0240927673876,-0.0240927673876,2017,-31,FE1,2017,-31
1179,1.18,-0.0242013279349,-0.0242017656565,-0.0242017656565,2017,-31,FE1,2017,-31
1180,1.181,-0.0243595596403,-0.024359645322,-0.024359645322,2017,-31,FE1,2017,-31
1181,1.182,-0.0245927777141,-0.0245933067054,-0.0245933067054,2016,-32,FE0,2016,-32
1182,1.183,-0.0246652979404,-0.0246654301882,-0.0246654301882,2016,-32,FE0,2016,-32
1183,1.184,-0.0229883417487,-0.0229893364012,-0.0229893364012,2018,-30,FE2,2018,-30
1184,1.185,-0.0220495257527,-0.0220497138798,-0.0220497138798,2020,-28,FE4,2020,-28
1185,1.186,-0.022019315511,-0.0220190919936,-0.0220190919936,2020,-28,FE4,2020,-28
1186,1.187,-0.0222940389067,-0.0222945008427,-0.0222945008427,2019,-29,FE3,2019,-29
1187,1.188,-0.0225980449468,-0.0225986223668,-0.0225986223668,2019,-29,FE3,2019,-29
1188,1.189,-0.0227085463703,-0.0227096714079,-0.0227096714079,2019,-29,FE3,2019,-29
1189,1.19,-0.022218991071,-0.0222179945558,-0.0222179945558,2019,-29,FE3,2019,-29
1190,1.191,-0.0219126846641,-0.0219121389091,-0.0219121389091,2020,-28,FE4,2020,-28
1191,1.192,-0.0215756297112,-0.0215750616044,-0.0215750616044,2020,-28,FE4,2020,-28
1192,1.193,-0.0211563054472,-0.0211555883288,-0.0211555883288,2021,-27,FE5,2021,-27
1193,1.194,-0.0206736568362,-0.0206728093326,-0.0206728093326,2021,-27,FE5,2021,-27
1194,1.195,-0.0221586953849,-0.0221575219184,-0.0221575219184,2020,-28,FE4,2020,-28
1195,1.196,-0.0233009569347,-0.0233006589115,-0.0233006589115,2018,-30,FE2,2018,-30
1196,1.197,-0.0233814828098,-0.0233818013221,-0.0233818013221,2018,-30,FE2,2018,-30
1197,1.198,-0.0227118711919,-0.0227121990174,-0.0227121990174,2019,-29,FE3,2019,-29
1198,1.199,-0.0223465431482,-0.0223457273096,-0.0223457273096,2019,-29,FE3,2019,-29
1199,1.2,-0.0223475974053,-0.0223474930972,-0.0223474930972,2019,-29,FE3,2019,-29
1200,1.201,-0.0214602760971,-0.0214604102075,-0.0214604102075,2020,-28,FE4,2020,-28
1201,1.202,-0.0214689504355,-0.0214687567204,-0.0214687567204,2020,-28,FE4,2020,-28
1202,1.203,-0.0216778386384,-0.0216786991805,-0.0216786991805,2020,-28,FE4,2020,-28
1203,1.204,-0.021659117192,-0.0216589309275,-0.0216589309275,2020,-28,FE4,2020,-28
1204,1.205,-0.0218838714063,-0.0218842756003,-0.0218842756003,2020,-28,FE4,2020,-28
1205,1.206,-0.0211252644658,-0.0211262535304,-0.0211262535304,2021,-27,FE5,2021,-27
1206,1.207,-0.0199846811593,-0.019985081628,-0.019985081628,2022,-26,FE6,2022,-26
1207,1.208,-0.0194412283599,-0.0194401815534,-0.0194401815534,2023,-25,FE7,2023,-25
1208,1.209,-0.0203274860978,-0.0203264895827,-0.0203264895827,2022,-26,FE6,2022,-26
1209,1.21,-0.0206582341343,-0.0206592045724,-0.0206592045724,2021,-27,FE5,2021,-27
1210,1.211,-0.020284358412,-0.0202838238329,-0.0202838238329,2022,-26,FE6,2022,-26
1211,1.212,-0.0202097371221,-0.020209711045,-0.020209711045,2022,-26,FE6,2022,-26
1212,1.213,-0.0198318697512,-0.0198312457651,-0.0198312457651,2022,-26,FE6,2022,-26
1213,1.214,-0.0196898486465,-0.0196874085814,-0.0196874085814,2023,-25,FE7,2023,-25
1214,1.215,-0.0210083834827,-0.0210079737008,-0.0210079737008,2021,-27,FE5,2021,-27
1215,1.216,-0.0214634127915,-0.0214643534273,-0.0214643534273,2020,-28,FE4,2020,-28
1216,1.217,-0.0212653465569,-0.0212659537792,-0.0212659537792,2021,-27,FE5,2021,-27
1217,1.218,-0.0207819715142,-0.0207807440311,-0.0207807440311,2021,-27,FE5,2021,-27
1218,1.219,-0.0210071019828,-0.0210073608905,-0.0210073608905,2021,-27,FE5,2021,-27
1219,1.22,-0.0207191854715,-0.0207187067717,-0.0207187067717,2021,-27,FE5,2021,-27
1220,1.221,-0.0206354167312,-0.0206350460649,-0.0206350460649,2021,-27,FE5,2021,-27
1221,1.222,-0.0209239311516,-0.0209244284779,-0.0209244284779,2021,-27,FE5,2021,-27
1222,1.223,-0.021191239357,-0.0211917832494,-0.0211917832494,2021,-27,FE5,2021,-27
1223,1.224,-0.021270416677,-0.0212706550956,-0.0212706550956,2021,-27,FE5,2021,-27
1224,1.225,-0.0211080815643,-0.0211078897119,-0.0211078897119,2021,-27,FE5,2021,-27
1225,1.226,-0.0201478246599,-0.0201489217579,-0.0201489217579,2022,-26,FE6,2022,-26
1226,1.227,-0.019382616505,-0.0193812120706,-0.0193812120706,2023,-25,FE7,2023,-25
1227,1.228,-0.0193569567055,-0.0193547066301,-0.0193547066301,2023,-25,FE7,2023,-25
1228,1.229,-0.0205735974014,-0.0205733813345,-0.0205733813345,2021,-27,FE5,2021,-27
1229,1.23,-0.0205592960119,-0.0205594822764,-0.0205594822764,2021,-27,FE5,2021,-27
1230,1.231,-0.0208341833204,-0.0208342839032,-0.0208342839032,2021,-27,FE5,2021,-27
1231,1.232,-0.0212965961546,-0.0212976448238,-0.0212976448238,2021,-27,FE5,2021,-27
1232,1.233,-0.0214241053909,-0.0214243419468,-0.0214243419468,2020,-28,FE4,2020,-28
1233,1.234,-0.0216073449701,-0.021607613191,-0.021607613191,2020,-28,FE4,2020,-28
1234,1.235,-0.0219608675689,-0.0219614356756,-0.0219614356756,2020,-28,FE4,2020,-28
1235,1.236,-0.0224743932486,-0.0224752686918,-0.0224752686918,2019,-29,FE3,2019,-29
1236,1.237,-0.0214816480875,-0.0214825998992,-0.0214825998992,2020,-28,FE4,2020,-28
1237,1.238,-0.0214144233614,-0.0214140545577,-0.0214140545577,2020,-28,FE4,2020,-28
1238,1.239,-0.0216768998653,-0.021677153185,-0.021677153185,2020,-28,FE4,2020,-28
1239,1.24,-0.0214987210929,-0.0214982740581,-0.0214982740581,2020,-28,FE4,2020,-28
1240,1.241,-0.021490957588,-0.0214909762144,-0.0214909762144,2020,-28,FE4,2020,-28
1241,1.242,-0.0218426790088,-0.0218427982181,-0.0218427982181,2020,-28,FE4,2020,-28
1242,1.243,-0.0223353840411,-0.0223366748542,-0.0223366748542,2019,-29,FE3,2019,-29
1243,1.244,-0.0220316853374,-0.022031320259,-0.022031320259,2020,-28,FE4,2020,-28
1244,1.245,-0.0221778452396,-0.0221776552498,-0.0221776552498,2019,-29,FE3,2019,-29
1245,1.246,-0.0220728013664,-0.0220728572458,-0.0220728572458,2020,-28,FE4,2020,-28
1246,1.247,-0.0215637907386,-0.0215629152954,-0.0215629152954,2020,-28,FE4,2020,-28
1247,1.248,-0.0215529352427,-0.0215529091656,-0.0215529091656,2020,-28,FE4,2020,-28
1248,1.249,-0.0214927010238,-0.0214925985783,-0.0214925985783,2020,-28,FE4,2020,-28
1249,1.25,-0.0215025115758,-0.0215024612844,-0.0215024612844,2020,-28,FE4,2020,-28
1250,1.251,-0.0217091944069,-0.0217094849795,-0.0217094849795,2020,-28,FE4,2020,-28
1251,1.252,-0.0221164617687,-0.0221171285957,-0.0221171285957,2020,-28,FE4,2020,-28
1252,1.253,-0.0223245788366,-0.0223261397332,-0.0223261397332,2019,-29,FE3,2019,-29
1253,1.254,-0.021986560896,-0.021985610947,-0.021985610947,2020,-28,FE4,2020,-28
1254,1.255,-0.0222668107599,-0.0222672317177,-0.0222672317177,2019,-29,FE3,2019,-29
1255,1.256,-0.0229683704674,-0.022967774421,-0.022967774421,2018,-30,FE2,2018,-30
1256,1.257,-0.0236188843846,-0.0236202869564,-0.0236202869564,2018,-30,FE2,2018,-30
1257,1.258,-0.0237818025053,-0.0237822420895,-0.0237822420895,2017,-31,FE1,2017,-31
1258,1.259,-0.024503659457,-0.024503486231,-0.024503486231,2017,-31,FE1,2017,-31
1259,1.26,-0.0246632006019,-0.0246639121324,-0.0246639121324,2016,-32,FE0,2016,-32
1260,1.261,-0.0242550652474,-0.0242544487119,-0.0242544487119,2017,-31,FE1,2017,-31
1261,1.262,-0.0231142863631,-0.0231148321182,-0.0231148321182,2018,-30,FE2,2018,-30
1262,1.263,-0.0222777035087,-0.0222780741751,-0.0222780741751,2019,-29,FE3,2019,-29
1263,1.264,-0.0219917651266,-0.0219893995672,-0.0219893995672,2020,-28,FE4,2020,-28
1264,1.265,-0.0232457108796,-0.0232453439385,-0.0232453439385,2018,-30,FE2,2018,-30
1265,1.266,-0.0236276723444,-0.023628493771,-0.023628493771,2018,-30,FE2,2018,-30
1266,1.267,-0.0235669761896,-0.0235672444105,-0.0235672444105,2018,-30,FE2,2018,-30
1267,1.268,-0.0233692340553,-0.0233686864376,-0.0233686864376,2018,-30,FE2,2018,-30
1268,1.269,-0.0235677305609,-0.0235679987818,-0.0235679987818,2018,-30,FE2,2018,-30
1269,1.27,-0.0239469148219,-0.023947564885,-0.023947564885,2017,-31,FE1,2017,-31
1270,1.271,-0.0243740528822,-0.0243748296052,-0.0243748296052,2017,-31,FE1,2017,-31
1271,1.272,-0.0247552357614,-0.0247559584677,-0.0247559584677,2016,-32,FE0,2016,-32
1272,1.273,-0.0240387748927,-0.0240391343832,-0.0240391343832,2017,-31,FE1,2017,-31
1273,1.274,-0.0236448198557,-0.023643983528,-0.023643983528,2018,-30,FE2,2018,-30
1274,1.275,-0.0234553348273,-0.0234549995512,-0.0234549995512,2018,-30,FE2,2018,-30
1275,1.276,-0.0243619047105,-0.0243611335754,-0.0243611335754,2017,-31,FE1,2017,-31
1276,1.277,-0.0244159139693,-0.0244162268937,-0.0244162268937,2017,-31,FE1,2017,-31
1277,1.278,-0.0247462186962,-0.0247447472066,-0.0247447472066,2016,-32,FE0,2016,-32
1278,1.279,-0.026133293286,-0.0261330120265,-0.0261330120265,2015,-33,FDF,2015,-33
1279,1.28,-0.0262066777796,-0.026207042858,-0.026207042858,2014,-34,FDE,2014,-34
1280,1.281,-0.0262129567564,-0.0262127928436,-0.0262127928436,2014,-34,FDE,2014,-34
1281,1.282,-0.0263041909784,-0.0263044442981,-0.0263044442981,2014,-34,FDE,2014,-34
1282,1.283,-0.0263007208705,-0.0263006854802,-0.0263006854802,2014,-34,FDE,2014,-34
1283,1.284,-0.0259745996445,-0.0259753745049,-0.0259753745049,2015,-33,FDF,2015,-33
1284,1.285,-0.025984570384,-0.0259844083339,-0.0259844083339,2015,-33,FDF,2015,-33
1285,1.286,-0.0263462197036,-0.0263467952609,-0.0263467952609,2014,-34,FDE,2014,-34
1286,1.287,-0.0252521615475,-0.0252524912357,-0.0252524912357,2016,-32,FE0,2016,-32
1287,1.288,-0.0250858440995,-0.0250851809978,-0.0250851809978,2016,-32,FE0,2016,-32
1288,1.289,-0.0255108159035,-0.0255096964538,-0.0255096964538,2015,-33,FDF,2015,-33
1289,1.29,-0.0268018078059,-0.0268014296889,-0.0268014296889,2014,-34,FDE,2014,-34
1290,1.291,-0.0271878242493,-0.0271890163422,-0.0271890163422,2013,-35,FDD,2013,-35
1291,1.292,-0.0273215714842,-0.0273217484355,-0.0273217484355,2013,-35,FDD,2013,-35
1292,1.293,-0.027336711064,-0.0273369811475,-0.0273369811475,2013,-35,FDD,2013,-35
1293,1.294,-0.0268857032061,-0.0268849935383,-0.0268849935383,2014,-34,FDE,2014,-34
1294,1.295,-0.0266627576202,-0.0266628172249,-0.0266628172249,2014,-34,FDE,2014,-34
1295,1.296,-0.0263631865382,-0.02636256814,-0.02636256814,2014,-34,FDE,2014,-34
1296,1.297,-0.0259388722479,-0.0259380992502,-0.0259380992502,2015,-33,FDF,2015,-33
1297,1.298,-0.0270845778286,-0.0270840227604,-0.0270840227604,2013,-35,FDD,2013,-35
1298,1.299,-0.0276981592178,-0.027697969228,-0.027697969228,2013,-35,FDD,2013,-35
1299,1.3,-0.0279539003968,-0.0279543902725,-0.0279543902725,2012,-36,FDC,2012,-36
1300,1.301,-0.0270741954446,-0.0270742624998,-0.0270742624998,2013,-35,FDD,2013,-35
1301,1.302,-0.0270375050604,-0.0270372368395,-0.0270372368395,2013,-35,FDD,2013,-35
1302,1.303,-0.0272254869342,-0.0272268075496,-0.0272268075496,2013,-35,FDD,2013,-35
1303,1.304,-0.0272361207753,-0.0272359643131,-0.0272359643131,2013,-35,FDD,2013,-35
1304,1.305,-0.027541000396,-0.0275415312499,-0.0275415312499,2013,-35,FDD,2013,-35
1305,1.306,-0.027520513162,-0.0275207236409,-0.0275207236409,2013,-35,FDD,2013,-35
1306,1.307,-0.0272747352719,-0.0272740814835,-0.0272740814835,2013,-35,FDD,2013,-35
1307,1.308,-0.0270873047411,-0.0270870104432,-0.0270870104432,2013,-35,FDD,2013,-35
1308,1.309,-0.0272296182811,-0.0272299125791,-0.0272299125791,2013,-35,FDD,2013,-35
1309,1.31,-0.0270597562194,-0.0270596183836,-0.0270596183836,2013,-35,FDD,2013,-35
1310,1.311,-0.026565792039,-0.0265649799258,-0.0265649799258,2014,-34,FDE,2014,-34
1311,1.312,-0.0275514163077,-0.0275504589081,-0.0275504589081,2013,-35,FDD,2013,-35
1312,1.313,-0.0276252608746,-0.0276256445795,-0.0276256445795,2013,-35,FDD,2013,-35
1313,1.314,-0.0273835342377,-0.0273825787008,-0.0273825787008,2013,-35,FDD,2013,-35
1314,1.315,-0.0275813601911,-0.02758185938,-0.02758185938,2013,-35,FDD,2013,-35
1315,1.316,-0.0275884028524,-0.0275884028524,-0.0275884028524,2013,-35,FDD,2013,-35
1316,1.317,-0.0269542746246,-0.0269553400576,-0.0269553400576,2014,-34,FDE,2014,-34
1317,1.318,-0.0259506385773,-0.025950813666,-0.025950813666,2015,-33,FDF,2015,-33
1318,1.319,-0.0259859841317,-0.0259858444333,-0.0259858444333,2015,-33,FDF,2015,-33
1319,1.32,-0.0256237667054,-0.0256230905652,-0.0256230905652,2015,-33,FDF,2015,-33
1320,1.321,-0.0254973098636,-0.0254968609661,-0.0254968609661,2015,-33,FDF,2015,-33
1321,1.322,-0.0257437564433,-0.025744182989,-0.025744182989,2015,-33,FDF,2015,-33
1322,1.323,-0.0254683140665,-0.0254676733166,-0.0254676733166,2015,-33,FDF,2015,-33
1323,1.324,-0.0252354014665,-0.025234984234,-0.025234984234,2016,-32,FE0,2016,-32
1324,1.325,-0.0249449014664,-0.024944446981,-0.024944446981,2016,-32,FE0,2016,-32
1325,1.326,-0.0239181295037,-0.0239190738648,-0.0239190738648,2017,-31,FE1,2017,-31
1326,1.327,-0.0231025218964,-0.0231010261923,-0.0231010261923,2018,-30,FE2,2018,-30
1327,1.328,-0.0221726093441,-0.0221736207604,-0.0221736207604,2019,-29,FE3,2019,-29
1328,1.329,-0.0209763739258,-0.020976614207,-0.020976614207,2021,-27,FE5,2021,-27
1329,1.33,-0.0201854910702,-0.0201863572001,-0.0201863572001,2022,-26,FE6,2022,-26
1330,1.331,-0.0199539158493,-0.0199538078159,-0.0199538078159,2022,-26,FE6,2022,-26
1331,1.332,-0.0199998598546,-0.0200000088662,-0.0200000088662,2022,-26,FE6,2022,-26
1332,1.333,-0.0199738238007,-0.0199737567455,-0.0199737567455,2022,-26,FE6,2022,-26
1333,1.334,-0.0173524301499,-0.0173539798707,-0.0173539798707,2025,-23,FE9,2025,-23
1334,1.335,-0.0158268269151,-0.0158271659166,-0.0158271659166,2027,-21,FEB,2027,-21
1335,1.336,-0.0156533643603,-0.0156527943909,-0.0156527943909,2028,-20,FEC,2028,-20
1336,1.337,-0.0143440393731,-0.0143444696441,-0.0143444696441,2029,-19,FED,2029,-19
1337,1.338,-0.0140262832865,-0.0140254711732,-0.0140254711732,2030,-18,FEE,2030,-18
1338,1.339,-0.0136511428282,-0.0136535512283,-0.0136535512283,2030,-18,FEE,2030,-18
1339,1.34,-0.011055492796,-0.0110563421622,-0.0110563421622,2033,-15,FF1,2033,-15
1340,1.341,-0.0100691895932,-0.0100695611909,-0.0100695611909,2035,-13,FF3,2035,-13
1341,1.342,-0.00925832334906,-0.00925901066512,-0.00925901066512,2036,-12,FF4,2036,-12
1342,1.343,-0.00826246105134,-0.00826291926205,-0.00826291926205,2037,-11,FF5,2037,-11
1343,1.344,-0.00744963949546,-0.00745009072125,-0.00745009072125,2038,-10,FF6,2038,-10
1344,1.345,-0.00625684903935,-0.00625758897513,-0.00625758897513,2039,-9,FF7,2039,-9
1345,1.346,-0.00515977758914,-0.00516029028222,-0.00516029028222,2041,-7,FF9,2041,-7
1346,1.347,-0.00437377393246,-0.00437413481995,-0.00437413481995,2042,-6,FFA,2042,-6
1347,1.348,-0.00430779997259,-0.00430759601295,-0.00430759601295,2042,-6,FFA,2042,-6
1348,1.349,-0.00422380212694,-0.0042236642912,-0.0042236642912,2042,-6,FFA,2042,-6
1349,1.35,-0.004175812006,-0.00417567417026,-0.00417567417026,2042,-6,FFA,2042,-6
1350,1.351,-0.00143374677282,-0.00143459951505,-0.00143459951505,2045,-3,FFD,2045,-3
1351,1.352,-0.000707978964783,-0.00070805719588,-0.00070805719588,2046,-2,FFE,2046,-2
1352,1.353,-0.000360411562724,-0.000361449609045,-0.000361449609045,2047,-1,FFF,2047,-1
1353,1.354,0.000594601675402,0.000594451848883,0.000594451848883,2048,0,000,2048,0
1354,1.355,0.000553363584913,0.000553441757802,0.000553441757802,2048,0,000,2048,0
1355,1.356,0.000914865173399,0.000914297415875,0.000914297415875,2048,0,000,2048,0
1356,1.357,0.0015204581432,0.00152026116848,0.00152026116848,2049,1,001,2049,1
1357,1.358,0.00181473384146,0.00181456957944,0.00181456957944,2049,1,001,2049,1
1358,1.359,0.0017181399744,0.00171816011425,0.00171816011425,2049,1,001,2049,1
1359,1.36,0.00193665991537,0.00193642580416,0.00193642580416,2049,1,001,2049,1
1360,1.361,0.00249371910468,0.00249356054701,0.00249356054701,2050,2,002,2050,2
1361,1.362,0.00210877298377,0.0021088256035,0.0021088256035,2050,2,002,2050,2
1362,1.363,0.00231596594676,0.00231575034559,0.00231575034559,2050,2,002,2050,2
1363,1.364,0.00273130438291,0.00273107225075,0.00273107225075,2050,2,002,2050,2
1364,1.365,0.00305061694235,0.00305049261078,0.00305049261078,2051,3,003,2051,3
1365,1.366,0.00314674177207,0.00314701697789,0.00314701697789,2051,3,003,2051,3
1366,1.367,0.00347556057386,0.00347496639006,0.00347496639006,2051,3,003,2051,3
1367,1.368,0.00393359921873,0.00393361225724,0.00393361225724,2052,4,004,2052,4
1368,1.369,0.00363349891268,0.00363377085887,0.00363377085887,2052,4,004,2052,4
1369,1.37,0.0038400515914,0.00383982667699,0.00383982667699,2052,4,004,2052,4
1370,1.371,0.00385285308585,0.00385311199352,0.00385311199352,2052,4,004,2052,4
1371,1.372,0.00350852799602,0.00350874010473,0.00350874010473,2051,3,003,2051,3
1372,1.373,0.00418401043862,0.00418367795646,0.00418367795646,2052,4,004,2052,4
1373,1.374,0.00458022858948,0.00458007864654,0.00458007864654,2053,5,005,2053,5
1374,1.375,0.00484729511663,0.00484712561592,0.00484712561592,2053,5,005,2053,5
1375,1.376,0.00522257992998,0.00522232241929,0.00522232241929,2053,5,005,2053,5
1376,1.377,0.00574851641431,0.00574818998575,0.00574818998575,2054,6,006,2054,6
1377,1.378,0.00569642661139,0.00569830788299,0.00569830788299,2054,6,006,2054,6
1378,1.379,0.00446400372311,0.00446421513334,0.00446421513334,2053,5,005,2053,5
1379,1.38,0.00447759218514,0.0044774110429,0.0044774110429,2053,5,005,2053,5
1380,1.381,0.00481258891523,0.00481240730733,0.00481240730733,2053,5,005,2053,5
1381,1.382,0.00507559627295,0.00507561955601,0.00507561955601,2053,5,005,2053,5
1382,1.383,0.0051091122441,0.00510927988216,0.00510927988216,2053,5,005,2053,5
1383,1.384,0.00532214529812,0.00532201305032,0.00532201305032,2054,6,006,2054,6
1384,1.385,0.00513676181436,0.00513698579744,0.00513698579744,2053,5,005,2053,5
1385,1.386,0.00457933684811,0.00457975175232,0.00457975175232,2053,5,005,2053,5
1386,1.387,0.00494990916923,0.00494987284765,0.00494987284765,2053,5,005,2053,5
1387,1.388,0.00472215516493,0.00472236704081,0.00472236704081,2053,5,005,2053,5
1388,1.389,0.00428343517706,0.00428369222209,0.00428369222209,2052,4,004,2052,4
1389,1.39,0.0039395885542,0.00393971893936,0.00393971893936,2052,4,004,2052,4
1390,1.391,0.00381877296604,0.00381911592558,0.00381911592558,2052,4,004,2052,4
1391,1.392,0.00444250414148,0.00444207014516,0.00444207014516,2053,5,005,2053,5
1392,1.393,0.00565580977127,0.00565528916195,0.00565528916195,2054,6,006,2054,6
1393,1.394,0.00644451286644,0.00644412450492,0.00644412450492,2055,7,007,2055,7
1394,1.395,0.00512764928862,0.00512878317386,0.00512878317386,2053,5,005,2053,5
1395,1.396,0.00413455022499,0.00413463497534,0.00413463497534,2052,4,004,2052,4
1396,1.397,0.0042096558027,0.00420965487137,0.00420965487137,2052,4,004,2052,4
1397,1.398,0.0035530468449,0.00355335068889,0.00355335068889,2051,3,003,2051,3
1398,1.399,0.00327963242307,0.00327969831415,0.00327969831415,2051,3,003,2051,3
1399,1.4,0.00315064378083,0.00315044750459,0.00315044750459,2051,3,003,2051,3
1400,1.401,0.00572772417217,0.00572695443407,0.00572695443407,2054,6,006,2054,6
1401,1.402,0.00625054119155,0.00625059287995,0.00625059287995,2055,7,007,2055,7
1402,1.403,0.00567381130531,0.00567418430001,0.00567418430001,2054,6,006,2054,6
1403,1.404,0.0044833351858,0.00448390189558,0.00448390189558,2053,5,005,2053,5
1404,1.405,0.00361828203313,0.00361868180335,0.00361868180335,2051,3,003,2051,3
1405,1.406,0.00365708838217,0.0036566387862,0.0036566387862,2052,4,004,2052,4
1406,1.407,0.00412230798975,0.00412216130644,0.00412216130644,2052,4,004,2052,4
1407,1.408,0.00433675106615,0.00433663511649,0.00433663511649,2052,4,004,2052,4
1408,1.409,0.00462412694469,0.00462393229827,0.00462393229827,2053,5,005,2053,5
1409,1.41,0.00506884418428,0.00506855035201,0.00506855035201,2053,5,005,2053,5
1410,1.411,0.00564773147926,0.00564734172076,0.00564734172076,2054,6,006,2054,6
1411,1.412,0.004158325959,0.0041588274762,0.0041588274762,2052,4,004,2052,4
1412,1.413,0.00387566932477,0.00387559831142,0.00387559831142,2052,4,004,2052,4
1413,1.414,0.00407187268138,0.00407215021551,0.00407215021551,2052,4,004,2052,4
1414,1.415,0.00386900128797,0.00386902107857,0.00386902107857,2052,4,004,2052,4
1415,1.416,0.0038417482283,0.00384172960185,0.00384172960185,2052,4,004,2052,4
1416,1.417,0.00441578449681,0.00441475538537,0.00441475538537,2052,4,004,2052,4
1417,1.418,0.00531161297113,0.00531150074676,0.00531150074676,2054,6,006,2054,6
1418,1.419,0.00512372422963,0.00512361899018,0.00512361899018,2053,5,005,2053,5
1419,1.42,0.00490234512836,0.00490258261561,0.00490258261561,2053,5,005,2053,5
1420,1.421,0.00450204964727,0.00450237188488,0.00450237188488,2053,5,005,2053,5
1421,1.422,0.00395592581481,0.00395623408258,0.00395623408258,2052,4,004,2052,4
1422,1.423,0.00254379259422,0.00254444638267,0.00254444638267,2050,2,002,2050,2
1423,1.424,0.00184514338616,0.0018453222001,0.0018453222001,2049,1,001,2049,1
1424,1.425,0.0017913444899,0.00179125368595,0.00179125368595,2049,1,001,2049,1
1425,1.426,0.00324252061546,0.0032418910414,0.0032418910414,2051,3,003,2051,3
1426,1.427,0.00415864214301,0.00415820628405,0.00415820628405,2052,4,004,2052,4
1427,1.428,0.0045118778944,0.0045125419274,0.0045125419274,2053,5,005,2053,5
1428,1.429,0.00415241299197,0.00415240740404,0.00415240740404,2052,4,004,2052,4
1429,1.43,0.0043382756412,0.0043381312862,0.0043381312862,2052,4,004,2052,4
1430,1.431,0.00461565051228,0.00461547682062,0.00461547682062,2053,5,005,2053,5
1431,1.432,0.00478808395565,0.00478792004287,0.00478792004287,2053,5,005,2053,5
1432,1.433,0.00477977190167,0.00477983616292,0.00477983616292,2053,5,005,2053,5
1433,1.434,0.00502785667777,0.00502774957567,0.00502774957567,2053,5,005,2053,5
1434,1.435,0.00495412154123,0.00495415180922,0.00495415180922,2053,5,005,2053,5
