sample_index,time_s,xmodel_adc_code,xmodel_adc_signed,ltspice_th_adc_signed,error_lsb_ltspice_minus_xmodel,ltspice_direct_adc_signed,bit_exact,afe_out_v
0,0.001000,2028,-20,-21,-1,-21,0,-0.0165058859
1,0.002000,2020,-28,-29,-1,-29,0,-0.022296356
2,0.003000,2018,-30,-30,0,-30,1,-0.0236978922
3,0.004000,2018,-30,-31,-1,-31,0,-0.0238058288
4,0.005000,2017,-31,-31,0,-31,1,-0.0238470305
5,0.006000,2017,-31,-31,0,-31,1,-0.0242603049
6,0.007000,2017,-31,-32,-1,-32,0,-0.0251266509
7,0.008000,2015,-33,-34,-1,-34,0,-0.0263526253
8,0.009000,2015,-33,-35,-2,-35,0,-0.0277611967
9,0.010000,2015,-33,-37,-4,-37,0,-0.0291472487
10,0.011000,2009,-39,-39,0,-39,1,-0.030317327
11,0.012000,2009,-39,-40,-1,-40,0,-0.0311188158
12,0.013000,2008,-40,-40,0,-40,1,-0.0314591154
13,0.014000,2008,-40,-40,0,-40,1,-0.0313144177
14,0.015000,2009,-39,-39,0,-39,1,-0.0307281353
15,0.016000,2009,-39,-38,1,-38,0,-0.0298002437
16,0.017000,2010,-38,-37,1,-37,0,-0.0286696851
17,0.018000,2010,-38,-35,3,-35,0,-0.0274927504
18,0.019000,2010,-38,-34,4,-34,0,-0.0264206734
19,0.020000,2015,-33,-33,0,-33,1,-0.0255795605
20,0.021000,2015,-33,-32,1,-32,0,-0.0250551421
21,0.022000,2016,-32,-32,0,-32,1,-0.0248841122
22,0.023000,2018,-30,-29,1,-29,0,-0.022590911
23,0.024000,2020,-28,-28,0,-28,1,-0.0217707325
24,0.025000,2020,-28,-28,0,-28,1,-0.0220745355
25,0.026000,2017,-31,-31,0,-31,1,-0.0244579539
26,0.027000,2016,-32,-33,-1,-33,0,-0.0257360972
27,0.028000,2014,-34,-34,0,-34,1,-0.026710432
28,0.029000,2012,-36,-36,0,-36,1,-0.0278646108
29,0.030000,2012,-36,-36,0,-36,1,-0.0280396435
30,0.031000,2012,-36,-36,0,-36,1,-0.0280399192
31,0.032000,2012,-36,-36,0,-36,1,-0.0278690066
32,0.033000,2013,-35,-35,0,-35,1,-0.0273403432
33,0.034000,2013,-35,-35,0,-35,1,-0.0276339129
34,0.035000,2013,-35,-35,0,-35,1,-0.0276851263
35,0.036000,2013,-35,-35,0,-35,1,-0.0274856482
36,0.037000,2014,-34,-34,0,-34,1,-0.0268201157
37,0.038000,2014,-34,-34,0,-34,1,-0.0266407076
38,0.039000,2014,-34,-34,0,-34,1,-0.0269102324
39,0.040000,2013,-35,-36,-1,-36,0,-0.0278174412
40,0.041000,2012,-36,-36,0,-36,1,-0.0284499004
41,0.042000,2011,-37,-38,-1,-38,0,-0.0296771489
42,0.043000,2009,-39,-40,-1,-40,0,-0.0313197784
43,0.044000,2008,-40,-41,-1,-41,0,-0.031930849
44,0.045000,2007,-41,-41,0,-41,1,-0.0324677788
45,0.046000,2007,-41,-42,-1,-42,0,-0.0326861776
46,0.047000,2006,-42,-41,1,-41,0,-0.0325391069
47,0.048000,2007,-41,-42,-1,-42,0,-0.0327362083
48,0.049000,2006,-42,-42,0,-42,1,-0.0326558873
49,0.050000,2007,-41,-41,0,-41,1,-0.0324122757
50,0.051000,2008,-40,-39,1,-39,0,-0.0304640383
51,0.052000,2010,-38,-38,0,-38,1,-0.029698547
52,0.053000,2011,-37,-37,0,-37,1,-0.0289723389
53,0.054000,2012,-36,-35,1,-35,0,-0.0275703464
54,0.055000,2013,-35,-35,0,-35,1,-0.0272303019
55,0.056000,2012,-36,-36,0,-36,1,-0.0284798313
56,0.057000,2010,-38,-38,0,-38,1,-0.030056918
57,0.058000,2009,-39,-39,0,-39,1,-0.0304895602
58,0.059000,2009,-39,-39,0,-39,1,-0.0308876149
59,0.060000,2009,-39,-39,0,-39,1,-0.0309248455
60,0.061000,2009,-39,-39,0,-39,1,-0.0306896679
61,0.062000,2008,-40,-40,0,-40,1,-0.0314614549
62,0.063000,2008,-40,-40,0,-40,1,-0.0316588618
63,0.064000,2008,-40,-40,0,-40,1,-0.0314253941
64,0.065000,2009,-39,-39,0,-39,1,-0.030315781
65,0.066000,2010,-38,-38,0,-38,1,-0.0300113615
66,0.067000,2011,-37,-37,0,-37,1,-0.0288392417
67,0.068000,2013,-35,-34,1,-34,0,-0.0269139614
68,0.069000,2014,-34,-34,0,-34,1,-0.0264997818
69,0.070000,2016,-32,-32,0,-32,1,-0.024973141
70,0.071000,2017,-31,-31,0,-31,1,-0.0237946846
71,0.072000,2018,-30,-30,0,-30,1,-0.0234039985
72,0.073000,2016,-32,-32,0,-32,1,-0.0251010917
73,0.074000,2016,-32,-33,-1,-33,0,-0.0257269796
74,0.075000,2015,-33,-33,0,-33,1,-0.0254402384
75,0.076000,2012,-36,-37,-1,-37,0,-0.0287772827
76,0.077000,2011,-37,-38,-1,-38,0,-0.0294490699
77,0.078000,2010,-38,-38,0,-38,1,-0.0296589322
78,0.079000,2009,-39,-39,0,-39,1,-0.030643072
79,0.080000,2009,-39,-39,0,-39,1,-0.0308615863
80,0.081000,2006,-42,-42,0,-42,1,-0.032924816
81,0.082000,2004,-44,-45,-1,-45,0,-0.0356344953
82,0.083000,2002,-46,-47,-1,-47,0,-0.0369913056
83,0.084000,2001,-47,-47,0,-47,1,-0.0370780677
84,0.085000,2001,-47,-47,0,-47,1,-0.0374104604
85,0.086000,2000,-48,-48,0,-48,1,-0.0381108746
86,0.087000,1998,-50,-52,-2,-52,0,-0.0409650654
87,0.088000,1994,-54,-54,0,-54,1,-0.0424154885
88,0.089000,1994,-54,-54,0,-54,1,-0.0429996736
89,0.090000,1993,-55,-55,0,-55,1,-0.0434890129
90,0.091000,1993,-55,-55,0,-55,1,-0.0432836674
91,0.092000,1994,-54,-55,-1,-55,0,-0.0432284847
92,0.093000,1993,-55,-55,0,-55,1,-0.0433899462
93,0.094000,1994,-54,-54,0,-54,1,-0.0429478772
94,0.095000,1993,-55,-55,0,-55,1,-0.0435745642
95,0.096000,1993,-55,-56,-1,-56,0,-0.0440723263
96,0.097000,1992,-56,-56,0,-56,1,-0.0440780856
97,0.098000,1992,-56,-56,0,-56,1,-0.0440804996
98,0.099000,1992,-56,-56,0,-56,1,-0.0442445576
99,0.100000,1992,-56,-56,0,-56,1,-0.0445890836
100,0.101000,1992,-56,-57,-1,-57,0,-0.04506341
101,0.102000,1991,-57,-58,-1,-58,0,-0.0455860347
102,0.103000,1990,-58,-58,0,-58,1,-0.0457261615
103,0.104000,1991,-57,-57,0,-57,1,-0.0451434925
104,0.105000,1991,-57,-57,0,-57,1,-0.0450367071
105,0.106000,1992,-56,-56,0,-56,1,-0.044331383
106,0.107000,1992,-56,-55,1,-55,0,-0.043339435
107,0.108000,1993,-55,-54,1,-54,0,-0.0426963456
108,0.109000,1994,-54,-54,0,-54,1,-0.0429716036
109,0.110000,1994,-54,-54,0,-54,1,-0.0428690687
110,0.111000,1994,-54,-54,0,-54,1,-0.0423193574
111,0.112000,1994,-54,-54,0,-54,1,-0.0427284688
112,0.113000,1994,-54,-54,0,-54,1,-0.0425925404
113,0.114000,1994,-54,-54,0,-54,1,-0.0425544344
114,0.115000,1993,-55,-56,-1,-56,0,-0.0439307243
115,0.116000,1993,-55,-56,-1,-56,0,-0.0444244668
116,0.117000,1992,-56,-57,-1,-57,0,-0.0447371341
117,0.118000,1992,-56,-57,-1,-57,0,-0.0451020524
118,0.119000,1991,-57,-58,-1,-58,0,-0.0455566086
119,0.120000,1991,-57,-58,-1,-58,0,-0.0460564531
120,0.121000,1991,-57,-59,-2,-59,0,-0.0465283245
121,0.122000,1991,-57,-59,-2,-59,0,-0.0468979813
122,0.123000,1989,-59,-59,0,-59,1,-0.0471065044
123,0.124000,1989,-59,-59,0,-59,1,-0.0471195802
124,0.125000,1989,-59,-59,0,-59,1,-0.046931278
125,0.126000,1990,-58,-58,0,-58,1,-0.0459939986
126,0.127000,1991,-57,-57,0,-57,1,-0.0452907048
127,0.128000,1991,-57,-57,0,-57,1,-0.0450047553
128,0.129000,1991,-57,-57,0,-57,1,-0.0453558527
129,0.130000,1991,-57,-57,0,-57,1,-0.0451068878
130,0.131000,1991,-57,-57,0,-57,1,-0.0453375727
131,0.132000,1990,-58,-58,0,-58,1,-0.0457664542
132,0.133000,1990,-58,-58,0,-58,1,-0.0458019972
133,0.134000,1992,-56,-56,0,-56,1,-0.0440288261
134,0.135000,1993,-55,-54,1,-54,0,-0.0430055112
135,0.136000,1994,-54,-54,0,-54,1,-0.042928651
136,0.137000,1994,-54,-53,1,-53,0,-0.0421330519
137,0.138000,1995,-53,-53,0,-53,1,-0.0420163311
138,0.139000,1995,-53,-53,0,-53,1,-0.0421536379
139,0.140000,1995,-53,-53,0,-53,1,-0.0422347039
140,0.141000,1995,-53,-53,0,-53,1,-0.0421361364
141,0.142000,1995,-53,-53,0,-53,1,-0.0420730487
142,0.143000,1995,-53,-53,0,-53,1,-0.0420057848
143,0.144000,1995,-53,-53,0,-53,1,-0.0415162854
144,0.145000,1996,-52,-52,0,-52,1,-0.0412685573
145,0.146000,1996,-52,-52,0,-52,1,-0.0409440994
146,0.147000,1996,-52,-51,1,-51,0,-0.0404882357
147,0.148000,1995,-53,-53,0,-53,1,-0.0420853645
148,0.149000,1994,-54,-54,0,-54,1,-0.0429022759
149,0.150000,1994,-54,-55,-1,-55,0,-0.0431659929
150,0.151000,1995,-53,-53,0,-53,1,-0.0416604988
151,0.152000,1996,-52,-52,0,-52,1,-0.0413572341
152,0.153000,1995,-53,-53,0,-53,1,-0.0419551656
153,0.154000,1994,-54,-55,-1,-55,0,-0.0433446392
154,0.155000,1993,-55,-56,-1,-56,0,-0.0440694354
155,0.156000,1993,-55,-55,0,-55,1,-0.0431962609
156,0.157000,1994,-54,-53,1,-53,0,-0.0417929217
157,0.158000,1995,-53,-52,1,-52,0,-0.0412491821
158,0.159000,1995,-53,-53,0,-53,1,-0.041786246
159,0.160000,1995,-53,-53,0,-53,1,-0.04194526
160,0.161000,1995,-53,-53,0,-53,1,-0.0415768921
161,0.162000,1995,-53,-53,0,-53,1,-0.0420514867
162,0.163000,1995,-53,-53,0,-53,1,-0.0418585353
163,0.164000,1996,-52,-53,-1,-53,0,-0.0416554846
164,0.165000,1994,-54,-54,0,-54,1,-0.0427886806
165,0.166000,1994,-54,-54,0,-54,1,-0.0429999679
166,0.167000,1994,-54,-55,-1,-55,0,-0.0432765633
167,0.168000,1993,-55,-55,0,-55,1,-0.0438253917
168,0.169000,1992,-56,-56,0,-56,1,-0.0442384928
169,0.170000,1991,-57,-58,-1,-58,0,-0.0458732359
170,0.171000,1988,-60,-60,0,-60,1,-0.0473196283
171,0.172000,1988,-60,-61,-1,-61,0,-0.0480648093
172,0.173000,1985,-63,-64,-1,-64,0,-0.0509638563
173,0.174000,1982,-66,-66,0,-66,1,-0.0524865948
174,0.175000,1982,-66,-67,-1,-67,0,-0.0529192798
175,0.176000,1979,-69,-70,-1,-70,0,-0.0557540618
176,0.177000,1977,-71,-71,0,-71,1,-0.0565617159
177,0.178000,1977,-71,-71,0,-71,1,-0.0565483645
178,0.179000,1977,-71,-71,0,-71,1,-0.0563035347
179,0.180000,1977,-71,-71,0,-71,1,-0.0560684018
180,0.181000,1977,-71,-72,-1,-72,0,-0.0571744293
181,0.182000,1974,-74,-74,0,-74,1,-0.0586781241
182,0.183000,1974,-74,-74,0,-74,1,-0.0592141189
183,0.184000,1969,-79,-80,-1,-80,0,-0.0639214143
184,0.185000,1964,-84,-84,0,-84,1,-0.0669480786
185,0.186000,1963,-85,-85,0,-85,1,-0.067897141
186,0.187000,1960,-88,-90,-2,-90,0,-0.0713636577
187,0.188000,1957,-91,-91,0,-91,1,-0.0728363171
188,0.189000,1957,-91,-92,-1,-92,0,-0.0733283013
189,0.190000,1956,-92,-92,0,-92,1,-0.0735732839
190,0.191000,1956,-92,-93,-1,-93,0,-0.0738210604
191,0.192000,1958,-90,-89,1,-89,0,-0.0711921528
192,0.193000,1963,-85,-83,2,-83,0,-0.0664328113
193,0.194000,1965,-83,-82,1,-82,0,-0.065189749
194,0.195000,1972,-76,-72,4,-72,0,-0.0575455651
195,0.196000,1982,-66,-65,1,-65,0,-0.0515120737
196,0.197000,1984,-64,-63,1,-63,0,-0.0496194661
197,0.198000,2000,-48,-48,0,-48,1,-0.0379941016
198,0.199000,2005,-43,-40,3,-40,0,-0.0315630436
199,0.200000,2009,-39,-37,2,-37,0,-0.0288458616
200,0.201000,2035,-13,-13,0,-13,1,-0.00995288603
201,0.202000,2044,-4,-4,0,-4,1,-0.00208578329
202,0.203000,2056,8,9,1,9,0,0.00798994582
203,0.204000,2080,32,34,2,34,0,0.0283090603
204,0.205000,2088,40,44,4,44,0,0.0360199325
205,0.206000,2109,61,67,6,67,0,0.0551985279
206,0.207000,2142,94,94,0,94,1,0.0766753629
207,0.208000,2151,103,104,1,104,0,0.084322311
208,0.209000,2176,128,135,7,135,0,0.109272428
209,0.210000,2202,154,154,0,154,1,0.125198305
210,0.211000,2207,159,162,3,162,0,0.131037548
211,0.212000,2226,178,186,8,186,0,0.150952131
212,0.213000,2243,195,198,3,198,0,0.160633013
213,0.214000,2253,205,205,0,205,1,0.16633971
214,0.215000,2265,217,217,0,217,1,0.175938264
215,0.216000,2272,224,224,0,224,1,0.181012422
216,0.217000,2272,224,223,-1,223,0,0.18082419
217,0.218000,2267,219,219,0,219,1,0.177221626
218,0.219000,2267,219,219,0,219,1,0.177449241
219,0.220000,2252,204,196,-8,196,0,0.159046501
220,0.221000,2230,182,178,-4,178,0,0.143895373
221,0.222000,2223,175,172,-3,172,0,0.139012635
222,0.223000,2174,126,126,0,126,1,0.10230349
223,0.224000,2150,102,101,-1,101,0,0.0820665509
224,0.225000,2141,93,91,-2,91,0,0.0738720149
225,0.226000,2091,43,37,-6,37,0,0.030675903
226,0.227000,2065,17,14,-3,14,0,0.0122540155
227,0.228000,2046,-2,-5,-3,-5,0,-0.00357359066
228,0.229000,2015,-33,-37,-4,-37,0,-0.0289077703
229,0.230000,2002,-46,-52,-6,-52,0,-0.040805459
230,0.231000,1985,-63,-66,-3,-66,0,-0.0524088368
231,0.232000,1970,-78,-80,-2,-80,0,-0.0633586198
232,0.233000,1970,-78,-87,-9,-87,0,-0.0697025582
233,0.234000,1958,-90,-92,-2,-92,0,-0.0729671568
234,0.235000,1958,-90,-94,-4,-94,0,-0.0750946328
235,0.236000,1952,-96,-96,0,-96,1,-0.0763395056
236,0.237000,1956,-92,-89,3,-89,0,-0.0706103444
237,0.238000,1960,-88,-84,4,-84,0,-0.0671481714
238,0.239000,1967,-81,-80,1,-80,0,-0.0638752952
239,0.240000,1976,-72,-72,0,-72,1,-0.0570273921
240,0.241000,1976,-72,-67,5,-67,0,-0.052838169
241,0.242000,1984,-64,-62,2,-62,0,-0.0493963882
242,0.243000,1987,-61,-58,3,-58,0,-0.0463208146
243,0.244000,1991,-57,-56,1,-56,0,-0.0440800004
244,0.245000,1993,-55,-55,0,-55,1,-0.0433816239
245,0.246000,1993,-55,-55,0,-55,1,-0.0432874784
246,0.247000,1993,-55,-55,0,-55,1,-0.0434688367
247,0.248000,1993,-55,-57,-2,-57,0,-0.0451272614
248,0.249000,1993,-55,-59,-4,-59,0,-0.046763964
249,0.250000,1993,-55,-61,-6,-61,0,-0.0483186692
250,0.251000,1987,-61,-61,0,-61,1,-0.0481235646
251,0.252000,1987,-61,-62,-1,-62,0,-0.0488756523
252,0.253000,1985,-63,-63,0,-63,1,-0.0495980196
253,0.254000,1985,-63,-63,0,-63,1,-0.0497174449
254,0.255000,1985,-63,-63,0,-63,1,-0.0496712811
255,0.256000,1986,-62,-61,1,-61,0,-0.0485864058
256,0.257000,1989,-59,-59,0,-59,1,-0.046920903
257,0.258000,1989,-59,-57,2,-57,0,-0.0454466864
258,0.259000,1991,-57,-55,2,-55,0,-0.0435245745
259,0.260000,1993,-55,-53,2,-53,0,-0.0418052003
260,0.261000,1997,-51,-51,0,-51,1,-0.0404533669
261,0.262000,1997,-51,-51,0,-51,1,-0.0405164957
262,0.263000,1997,-51,-51,0,-51,1,-0.040345788
263,0.264000,1997,-51,-51,0,-51,1,-0.0405046679
264,0.265000,1996,-52,-53,-1,-53,0,-0.0422424972
265,0.266000,1994,-54,-55,-1,-55,0,-0.0431924202
266,0.267000,1993,-55,-56,-1,-56,0,-0.0442282073
267,0.268000,1993,-55,-57,-2,-57,0,-0.0454509296
268,0.269000,1990,-58,-59,-1,-59,0,-0.0463668294
269,0.270000,1989,-59,-58,1,-58,0,-0.0458973348
270,0.271000,1990,-58,-57,1,-57,0,-0.0454496928
271,0.272000,1991,-57,-57,0,-57,1,-0.0454464592
272,0.273000,1990,-58,-60,-2,-60,0,-0.0473719388
273,0.274000,1988,-60,-61,-1,-61,0,-0.0481247492
274,0.275000,1987,-61,-60,1,-60,0,-0.0478781052
275,0.276000,1990,-58,-58,0,-58,1,-0.0460508205
276,0.277000,1990,-58,-57,1,-57,0,-0.0448095575
277,0.278000,1992,-56,-55,1,-55,0,-0.0437242016
278,0.279000,1994,-54,-54,0,-54,1,-0.0425683856
279,0.280000,1995,-53,-53,0,-53,1,-0.0419589654
280,0.281000,1995,-53,-53,0,-53,1,-0.0419958122
281,0.282000,1995,-53,-54,-1,-54,0,-0.0423413776
282,0.283000,1995,-53,-54,-1,-54,0,-0.0425926782
283,0.284000,1994,-54,-54,0,-54,1,-0.0424162038
284,0.285000,1994,-54,-54,0,-54,1,-0.0424266011
285,0.286000,1994,-54,-54,0,-54,1,-0.0426341593
286,0.287000,1994,-54,-54,0,-54,1,-0.0423193127
287,0.288000,1994,-54,-53,1,-53,0,-0.0422254689
288,0.289000,1995,-53,-53,0,-53,1,-0.0422554761
289,0.290000,1994,-54,-54,0,-54,1,-0.0426245444
290,0.291000,1994,-54,-54,0,-54,1,-0.0425000116
291,0.292000,1995,-53,-53,0,-53,1,-0.0421282314
292,0.293000,1995,-53,-53,0,-53,1,-0.0416424759
293,0.294000,1995,-53,-52,1,-52,0,-0.0411316939
294,0.295000,1995,-53,-53,0,-53,1,-0.041852247
295,0.296000,1994,-54,-54,0,-54,1,-0.0424333885
296,0.297000,1994,-54,-54,0,-54,1,-0.0424442962
297,0.298000,1994,-54,-55,-1,-55,0,-0.0433416739
298,0.299000,1993,-55,-55,0,-55,1,-0.0438401848
299,0.300000,1993,-55,-56,-1,-56,0,-0.0440884158
300,0.301000,1995,-53,-53,0,-53,1,-0.0420502126
301,0.302000,1995,-53,-53,0,-53,1,-0.0415369794
302,0.303000,1995,-53,-52,1,-52,0,-0.0413150564
303,0.304000,1996,-52,-51,1,-51,0,-0.0406497754
304,0.305000,1996,-52,-51,1,-51,0,-0.0405782498
305,0.306000,1998,-50,-50,0,-50,1,-0.039334394
306,0.307000,2000,-48,-48,0,-48,1,-0.0376758762
307,0.308000,2001,-47,-47,0,-47,1,-0.036891561
308,0.309000,2001,-47,-48,-1,-48,0,-0.0376329757
309,0.310000,2000,-48,-48,0,-48,1,-0.0378478914
310,0.311000,2000,-48,-47,1,-47,0,-0.0373655073
311,0.312000,2001,-47,-46,1,-46,0,-0.0366529562
312,0.313000,2001,-47,-46,1,-46,0,-0.0359508172
313,0.314000,2003,-45,-45,0,-45,1,-0.0355735272
314,0.315000,2003,-45,-46,-1,-46,0,-0.0362857804
315,0.316000,2002,-46,-46,0,-46,1,-0.036516346
316,0.317000,2002,-46,-47,-1,-47,0,-0.0372027755
317,0.318000,2000,-48,-49,-1,-49,0,-0.0383549482
318,0.319000,2000,-48,-49,-1,-49,0,-0.0390271209
319,0.320000,1998,-50,-50,0,-50,1,-0.0391564742
320,0.321000,1998,-50,-50,0,-50,1,-0.039297305
321,0.322000,1998,-50,-50,0,-50,1,-0.039590694
322,0.323000,1997,-51,-51,0,-51,1,-0.0403365009
323,0.324000,1997,-51,-52,-1,-52,0,-0.0407076851
324,0.325000,1996,-52,-52,0,-52,1,-0.0407147072
325,0.326000,1996,-52,-52,0,-52,1,-0.041052606
326,0.327000,1996,-52,-52,0,-52,1,-0.0408605263
327,0.328000,1997,-51,-52,-1,-52,0,-0.0407649204
328,0.329000,1996,-52,-52,0,-52,1,-0.0411969088
329,0.330000,1996,-52,-52,0,-52,1,-0.0410006456
330,0.331000,1996,-52,-51,1,-51,0,-0.0406644419
331,0.332000,1996,-52,-51,1,-51,0,-0.0403954796
332,0.333000,1996,-52,-51,1,-51,0,-0.0402738377
333,0.334000,1998,-50,-49,1,-49,0,-0.0389724784
334,0.335000,1999,-49,-49,0,-49,1,-0.0382934809
335,0.336000,1999,-49,-49,0,-49,1,-0.0383274928
336,0.337000,2000,-48,-48,0,-48,1,-0.0375292972
337,0.338000,2000,-48,-47,1,-47,0,-0.0373522565
338,0.339000,2001,-47,-47,0,-47,1,-0.0374034382
339,0.340000,2001,-47,-47,0,-47,1,-0.0373949036
340,0.341000,2001,-47,-47,0,-47,1,-0.0372202657
341,0.342000,2001,-47,-47,0,-47,1,-0.0368627533
342,0.343000,2001,-47,-46,1,-46,0,-0.0363547131
343,0.344000,2001,-47,-45,2,-45,0,-0.0357555412
344,0.345000,2003,-45,-46,-1,-46,0,-0.0359294899
345,0.346000,2002,-46,-46,0,-46,1,-0.0360003635
346,0.347000,2003,-45,-45,0,-45,1,-0.0357197337
347,0.348000,2003,-45,-46,-1,-46,0,-0.0364200473
348,0.349000,2002,-46,-47,-1,-47,0,-0.036779955
349,0.350000,2001,-47,-47,0,-47,1,-0.0369425192
350,0.351000,2004,-44,-44,0,-44,1,-0.0343040861
351,0.352000,2005,-43,-43,0,-43,1,-0.0336142927
352,0.353000,2005,-43,-43,0,-43,1,-0.0337577946
353,0.354000,2005,-43,-43,0,-43,1,-0.034143202
354,0.355000,2005,-43,-44,-1,-44,0,-0.0344934054
355,0.356000,2004,-44,-44,0,-44,1,-0.0349846147
356,0.357000,2003,-45,-45,0,-45,1,-0.0353208221
357,0.358000,2003,-45,-45,0,-45,1,-0.0351622626
358,0.359000,2003,-45,-44,1,-44,0,-0.0347205438
359,0.360000,2003,-45,-43,2,-43,0,-0.0341276005
360,0.361000,2005,-43,-43,0,-43,1,-0.0334863178
361,0.362000,2006,-42,-42,0,-42,1,-0.0334160477
362,0.363000,2006,-42,-42,0,-42,1,-0.0331454091
363,0.364000,2006,-42,-42,0,-42,1,-0.0328606479
364,0.365000,2006,-42,-42,0,-42,1,-0.0327007212
365,0.366000,2006,-42,-42,0,-42,1,-0.0327083655
366,0.367000,2006,-42,-42,0,-42,1,-0.0331178121
367,0.368000,2005,-43,-43,0,-43,1,-0.0338233113
368,0.369000,2005,-43,-44,-1,-44,0,-0.0342915691
369,0.370000,2004,-44,-43,1,-43,0,-0.0338595696
370,0.371000,2005,-43,-43,0,-43,1,-0.0334923714
371,0.372000,2005,-43,-43,0,-43,1,-0.033481285
372,0.373000,2005,-43,-44,-1,-44,0,-0.0344851017
373,0.374000,2004,-44,-44,0,-44,1,-0.0349120423
374,0.375000,2004,-44,-44,0,-44,1,-0.0348261073
375,0.376000,2003,-45,-45,0,-45,1,-0.0356315561
376,0.377000,2003,-45,-45,0,-45,1,-0.035590034
377,0.378000,2003,-45,-45,0,-45,1,-0.0353974886
378,0.379000,2003,-45,-45,0,-45,1,-0.0354613438
379,0.380000,2003,-45,-45,0,-45,1,-0.0352823175
380,0.381000,2003,-45,-44,1,-44,0,-0.0348187797
381,0.382000,2004,-44,-44,0,-44,1,-0.0344096087
382,0.383000,2004,-44,-44,0,-44,1,-0.0344085172
383,0.384000,2004,-44,-43,1,-43,0,-0.034166187
384,0.385000,2004,-44,-43,1,-43,0,-0.0341726951
385,0.386000,2004,-44,-44,0,-44,1,-0.0343897603
386,0.387000,2005,-43,-42,1,-42,0,-0.0330144837
387,0.388000,2006,-42,-41,1,-41,0,-0.0324667022
388,0.389000,2007,-41,-41,0,-41,1,-0.0321030244
389,0.390000,2009,-39,-39,0,-39,1,-0.0308688395
390,0.391000,2009,-39,-39,0,-39,1,-0.0302357748
391,0.392000,2010,-38,-39,-1,-39,0,-0.0304561462
392,0.393000,2008,-40,-40,0,-40,1,-0.0311859027
393,0.394000,2008,-40,-39,1,-39,0,-0.0309850462
394,0.395000,2009,-39,-38,1,-38,0,-0.0300776139
395,0.396000,2010,-38,-37,1,-37,0,-0.029225247
396,0.397000,2010,-38,-37,1,-37,0,-0.0287239943
397,0.398000,2010,-38,-38,0,-38,1,-0.0299630091
398,0.399000,2009,-39,-39,0,-39,1,-0.0307049267
399,0.400000,2009,-39,-40,-1,-40,0,-0.0310605355
400,0.401000,2009,-39,-38,1,-38,0,-0.0296539944
401,0.402000,2010,-38,-37,1,-37,0,-0.0293933507
402,0.403000,2010,-38,-38,0,-38,1,-0.0297887325
403,0.404000,2010,-38,-39,-1,-39,0,-0.0306065027
404,0.405000,2010,-38,-40,-2,-40,0,-0.0310391691
405,0.406000,2010,-38,-40,-2,-40,0,-0.031208748
406,0.407000,2008,-40,-40,0,-40,1,-0.0311632995
407,0.408000,2008,-40,-39,1,-39,0,-0.0309372991
408,0.409000,2008,-40,-40,0,-40,1,-0.0314661302
409,0.410000,2008,-40,-40,0,-40,1,-0.0315834023
410,0.411000,2008,-40,-40,0,-40,1,-0.0312544145
411,0.412000,2008,-40,-39,1,-39,0,-0.0308162645
412,0.413000,2009,-39,-39,0,-39,1,-0.0304295719
413,0.414000,2010,-38,-39,-1,-39,0,-0.0303512421
414,0.415000,2009,-39,-40,-1,-40,0,-0.0313034914
415,0.416000,2008,-40,-40,0,-40,1,-0.031687025
416,0.417000,2007,-41,-40,1,-40,0,-0.0312055256
417,0.418000,2009,-39,-38,1,-38,0,-0.0301945284
418,0.419000,2009,-39,-38,1,-38,0,-0.0301008373
419,0.420000,2010,-38,-39,-1,-39,0,-0.0303166341
420,0.421000,2010,-38,-39,-1,-39,0,-0.0305671878
421,0.422000,2009,-39,-39,0,-39,1,-0.0307218339
422,0.423000,2009,-39,-39,0,-39,1,-0.0302301832
423,0.424000,2010,-38,-38,0,-38,1,-0.0298095699
424,0.425000,2010,-38,-38,0,-38,1,-0.029426476
425,0.426000,2010,-38,-36,2,-36,0,-0.0284233317
426,0.427000,2012,-36,-35,1,-35,0,-0.027740635
427,0.428000,2013,-35,-36,-1,-36,0,-0.0278827045
428,0.429000,2011,-37,-37,0,-37,1,-0.0293134302
429,0.430000,2010,-38,-38,0,-38,1,-0.02952113
430,0.431000,2010,-38,-37,1,-37,0,-0.029370632
431,0.432000,2010,-38,-37,1,-37,0,-0.029213652
432,0.433000,2011,-37,-37,0,-37,1,-0.0291831009
433,0.434000,2011,-37,-37,0,-37,1,-0.0288624652
434,0.435000,2011,-37,-37,0,-37,1,-0.0288382415
435,0.436000,2011,-37,-37,0,-37,1,-0.0291060321
436,0.437000,2012,-36,-36,0,-36,1,-0.0283971224
437,0.438000,2012,-36,-36,0,-36,1,-0.0282735508
438,0.439000,2012,-36,-36,0,-36,1,-0.0283828862
439,0.440000,2012,-36,-36,0,-36,1,-0.0284487531
440,0.441000,2012,-36,-36,0,-36,1,-0.0283634085
441,0.442000,2012,-36,-36,0,-36,1,-0.0281029604
442,0.443000,2012,-36,-35,1,-35,0,-0.0276905876
443,0.444000,2012,-36,-35,1,-35,0,-0.0271767862
444,0.445000,2013,-35,-36,-1,-36,0,-0.0278153475
445,0.446000,2012,-36,-36,0,-36,1,-0.0282526854
446,0.447000,2012,-36,-36,0,-36,1,-0.0280856788
447,0.448000,2012,-36,-36,0,-36,1,-0.0283103008
448,0.449000,2012,-36,-36,0,-36,1,-0.0284021609
449,0.450000,2012,-36,-36,0,-36,1,-0.0284829363
450,0.451000,2012,-36,-37,-1,-37,0,-0.0286806617
451,0.452000,2012,-36,-37,-1,-37,0,-0.0290063675
452,0.453000,2011,-37,-37,0,-37,1,-0.0290751345
453,0.454000,2011,-37,-36,1,-36,0,-0.028560847
454,0.455000,2012,-36,-37,-1,-37,0,-0.0286519825
455,0.456000,2012,-36,-37,-1,-37,0,-0.0288655125
456,0.457000,2012,-36,-37,-1,-37,0,-0.0289906375
457,0.458000,2011,-37,-37,0,-37,1,-0.0289426204
458,0.459000,2012,-36,-36,0,-36,1,-0.0278105754
459,0.460000,2014,-34,-34,0,-34,1,-0.026837213
460,0.461000,2014,-34,-33,1,-33,0,-0.0261658467
461,0.462000,2014,-34,-35,-1,-35,0,-0.0271797348
462,0.463000,2013,-35,-35,0,-35,1,-0.0273136552
463,0.464000,2013,-35,-35,0,-35,1,-0.0271831173
464,0.465000,2013,-35,-36,-1,-36,0,-0.027866656
465,0.466000,2012,-36,-36,0,-36,1,-0.0279376525
466,0.467000,2012,-36,-36,0,-36,1,-0.0279255901
467,0.468000,2012,-36,-36,0,-36,1,-0.0280232504
468,0.469000,2012,-36,-36,0,-36,1,-0.0282741245
469,0.470000,2012,-36,-37,-1,-37,0,-0.0286509376
470,0.471000,2012,-36,-37,-1,-37,0,-0.0290931426
471,0.472000,2012,-36,-38,-2,-38,0,-0.0295286682
472,0.473000,2009,-39,-39,0,-39,1,-0.0303812139
473,0.474000,2009,-39,-39,0,-39,1,-0.0308654886
474,0.475000,2009,-39,-39,0,-39,1,-0.0309994463
475,0.476000,2009,-39,-39,0,-39,1,-0.0303330626
476,0.477000,2009,-39,-38,1,-38,0,-0.0298710149
477,0.478000,2010,-38,-38,0,-38,1,-0.029791316
478,0.479000,2010,-38,-39,-1,-39,0,-0.0303019471
479,0.480000,2009,-39,-38,1,-38,0,-0.0301567744
480,0.481000,2009,-39,-39,0,-39,1,-0.0307429601
481,0.482000,2008,-40,-40,0,-40,1,-0.031542968
482,0.483000,2008,-40,-40,0,-40,1,-0.0316397361
483,0.484000,2009,-39,-39,0,-39,1,-0.0302576423
484,0.485000,2010,-38,-38,0,-38,1,-0.0294355936
485,0.486000,2011,-37,-37,0,-37,1,-0.0293696709
486,0.487000,2011,-37,-36,1,-36,0,-0.0285588559
487,0.488000,2012,-36,-36,0,-36,1,-0.0284670815
488,0.489000,2011,-37,-36,1,-36,0,-0.0286008306
489,0.490000,2011,-37,-36,1,-36,0,-0.0283009615
490,0.491000,2011,-37,-36,1,-36,0,-0.0282262377
491,0.492000,2012,-36,-36,0,-36,1,-0.0283371657
492,0.493000,2012,-36,-36,0,-36,1,-0.0284766871
493,0.494000,2012,-36,-36,0,-36,1,-0.0281675365
494,0.495000,2012,-36,-37,-1,-37,0,-0.0288367439
495,0.496000,2011,-37,-37,0,-37,1,-0.0292074494
496,0.497000,2011,-37,-37,0,-37,1,-0.0289190263
497,0.498000,2011,-37,-36,1,-36,0,-0.0285056066
498,0.499000,2011,-37,-36,1,-36,0,-0.0281988215
499,0.500000,2012,-36,-36,0,-36,1,-0.0280898288
500,0.501000,2013,-35,-35,0,-35,1,-0.0270555746
501,0.502000,2014,-34,-34,0,-34,1,-0.026942214
502,0.503000,2013,-35,-35,0,-35,1,-0.027253516
503,0.504000,2013,-35,-35,0,-35,1,-0.0277014598
504,0.505000,2013,-35,-36,-1,-36,0,-0.0281249452
505,0.506000,2012,-36,-36,0,-36,1,-0.0281163212
506,0.507000,2012,-36,-36,0,-36,1,-0.0278613493
507,0.508000,2012,-36,-35,1,-35,0,-0.0276772045
508,0.509000,2012,-36,-35,1,-35,0,-0.0273985974
509,0.510000,2012,-36,-34,2,-34,0,-0.0269915424
510,0.511000,2012,-36,-34,2,-34,0,-0.0264833756
511,0.512000,2014,-34,-34,0,-34,1,-0.0264622048
512,0.513000,2014,-34,-33,1,-33,0,-0.0261513852
513,0.514000,2015,-33,-33,0,-33,1,-0.0258390401
514,0.515000,2015,-33,-33,0,-33,1,-0.0260342397
515,0.516000,2015,-33,-33,0,-33,1,-0.0260119718
516,0.517000,2016,-32,-32,0,-32,1,-0.0252932291
517,0.518000,2017,-31,-31,0,-31,1,-0.0241522342
518,0.519000,2017,-31,-31,0,-31,1,-0.024015408
519,0.520000,2018,-30,-29,1,-29,0,-0.0222808924
520,0.521000,2021,-27,-27,0,-27,1,-0.021026684
521,0.522000,2021,-27,-27,0,-27,1,-0.0208726767
522,0.523000,2021,-27,-26,1,-26,0,-0.020478107
523,0.524000,2021,-27,-26,1,-26,0,-0.0202302095
524,0.525000,2021,-27,-26,1,-26,0,-0.0199573096
525,0.526000,2022,-26,-25,1,-25,0,-0.0195207093
526,0.527000,2022,-26,-24,2,-24,0,-0.0189178512
527,0.528000,2024,-24,-24,0,-24,1,-0.0185514055
528,0.529000,2024,-24,-24,0,-24,1,-0.0187686086
529,0.530000,2024,-24,-24,0,-24,1,-0.0184012465
530,0.531000,2025,-23,-24,-1,-24,0,-0.0182587057
531,0.532000,2025,-23,-24,-1,-24,0,-0.0183211714
532,0.533000,2025,-23,-24,-1,-24,0,-0.0183396488
533,0.534000,2026,-22,-21,1,-21,0,-0.0162679963
534,0.535000,2028,-20,-20,0,-20,1,-0.0151856299
535,0.536000,2028,-20,-20,0,-20,1,-0.0152837811
536,0.537000,2029,-19,-19,0,-19,1,-0.0141886808
537,0.538000,2029,-19,-18,1,-18,0,-0.0140568689
538,0.539000,2029,-19,-19,0,-19,1,-0.0142868143
539,0.540000,2029,-19,-19,0,-19,1,-0.0144381197
540,0.541000,2029,-19,-19,0,-19,1,-0.0143439174
541,0.542000,2029,-19,-18,1,-18,0,-0.0134842088
542,0.543000,2031,-17,-16,1,-16,0,-0.0120316064
543,0.544000,2032,-16,-15,1,-15,0,-0.0110223209
544,0.545000,2034,-14,-14,0,-14,1,-0.0105706984
545,0.546000,2034,-14,-14,0,-14,1,-0.0101537472
546,0.547000,2034,-14,-13,1,-13,0,-0.00964755192
547,0.548000,2036,-12,-12,0,-12,1,-0.0087574739
548,0.549000,2037,-11,-11,0,-11,1,-0.00830531213
549,0.550000,2037,-11,-11,0,-11,1,-0.0082669314
550,0.551000,2037,-11,-11,0,-11,1,-0.00792781543
551,0.552000,2037,-11,-11,0,-11,1,-0.00812668726
552,0.553000,2036,-12,-11,1,-11,0,-0.00821554195
553,0.554000,2037,-11,-11,0,-11,1,-0.00774514535
554,0.555000,2037,-11,-11,0,-11,1,-0.00785888731
555,0.556000,2038,-10,-9,1,-9,0,-0.00682275509
556,0.557000,2039,-9,-8,1,-8,0,-0.00539470045
557,0.558000,2041,-7,-7,0,-7,1,-0.00485046767
558,0.559000,2041,-7,-6,1,-6,0,-0.00403566053
559,0.560000,2041,-7,-5,2,-5,0,-0.00331631745
560,0.561000,2041,-7,-4,3,-4,0,-0.00269235554
561,0.562000,2041,-7,-4,3,-4,0,-0.00206214306
562,0.563000,2045,-3,-3,0,-3,1,-0.00144129514
563,0.564000,2046,-2,-2,0,-2,1,-0.00115518284
564,0.565000,2045,-3,-4,-1,-4,0,-0.00230318285
565,0.566000,2044,-4,-4,0,-4,1,-0.00253749522
566,0.567000,2044,-4,-4,0,-4,1,-0.0020879223
567,0.568000,2045,-3,-3,0,-3,1,-0.00135784503
568,0.569000,2045,-3,-3,0,-3,1,-0.00137865846
569,0.570000,2046,-2,-2,0,-2,1,-0.000959961675
570,0.571000,2046,-2,-2,0,-2,1,-0.000838645094
571,0.572000,2046,-2,-2,0,-2,1,-0.00118878856
572,0.573000,2046,-2,-1,1,-1,0,-0.000132012123
573,0.574000,2047,-1,-1,0,-1,1,0.000325879868
574,0.575000,2047,-1,0,1,0,0,0.000420141034
575,0.576000,2046,-2,-2,0,-2,1,-0.00115325162
576,0.577000,2046,-2,-3,-1,-3,0,-0.00144823047
577,0.578000,2045,-3,-2,1,-2,0,-0.00111455633
578,0.579000,2045,-3,-2,1,-2,0,-0.000527871191
579,0.580000,2047,-1,-1,0,-1,1,0.000103292266
580,0.581000,2048,0,-1,-1,-1,0,2.71992212e-05
581,0.582000,2047,-1,-1,0,-1,1,-0.000358316
582,0.583000,2047,-1,-2,-1,-2,0,-0.000423790829
583,0.584000,2046,-2,-2,0,-2,1,-0.000530240126
584,0.585000,2046,-2,-2,0,-2,1,-0.000794629741
585,0.586000,2046,-2,-3,-1,-3,0,-0.00122142327
586,0.587000,2046,-2,-1,1,-1,0,-0.000161901029
587,0.588000,2047,-1,-1,0,-1,1,-6.3051717e-05
588,0.589000,2047,-1,-2,-1,-2,0,-0.000608725997
589,0.590000,2046,-2,-4,-2,-4,0,-0.00207195641
590,0.591000,2044,-4,-4,0,-4,1,-0.00266799587
591,0.592000,2044,-4,-5,-1,-5,0,-0.00302964333
592,0.593000,2043,-5,-5,0,-5,1,-0.00326886168
593,0.594000,2043,-5,-5,0,-5,1,-0.00301817874
594,0.595000,2045,-3,-3,0,-3,1,-0.00176644523
595,0.596000,2046,-2,-2,0,-2,1,-0.000619095517
596,0.597000,2046,-2,-1,1,-1,0,1.32310397e-05
597,0.598000,2047,-1,-2,-1,-2,0,-0.000615254568
598,0.599000,2046,-2,-2,0,-2,1,-0.000959310273
599,0.600000,2046,-2,-2,0,-2,1,-0.00108617079
600,0.601000,2046,-2,-2,0,-2,1,-0.000655423501
601,0.602000,2046,-2,-2,0,-2,1,-0.000675181858
602,0.603000,2046,-2,-2,0,-2,1,-0.000925796048
603,0.604000,2046,-2,-3,-1,-3,0,-0.00126700115
604,0.605000,2046,-2,-3,-1,-3,0,-0.0016108522
605,0.606000,2044,-4,-5,-1,-5,0,-0.00282674842
606,0.607000,2043,-5,-6,-1,-6,0,-0.00415184954
607,0.608000,2042,-6,-7,-1,-7,0,-0.00455456693
608,0.609000,2041,-7,-6,1,-6,0,-0.00411535613
609,0.610000,2041,-7,-6,1,-6,0,-0.00367002119
610,0.611000,2041,-7,-5,2,-5,0,-0.00337484898
611,0.612000,2041,-7,-5,2,-5,0,-0.00315173785
612,0.613000,2043,-5,-5,0,-5,1,-0.00298312027
613,0.614000,2043,-5,-5,0,-5,1,-0.0029603953
614,0.615000,2043,-5,-5,0,-5,1,-0.00343384664
615,0.616000,2043,-5,-5,0,-5,1,-0.00360509288
616,0.617000,2042,-6,-6,0,-6,1,-0.00394340139
617,0.618000,2042,-6,-7,-1,-7,0,-0.00446396647
618,0.619000,2042,-6,-7,-1,-7,0,-0.00471086754
619,0.620000,2041,-7,-7,0,-7,1,-0.00447487505
620,0.621000,2041,-7,-6,1,-6,0,-0.00429052254
621,0.622000,2041,-7,-6,1,-6,0,-0.00432346435
622,0.623000,2042,-6,-6,0,-6,1,-0.00392162101
623,0.624000,2042,-6,-6,0,-6,1,-0.00374400965
624,0.625000,2042,-6,-6,0,-6,1,-0.00370743661
625,0.626000,2040,-8,-8,0,-8,1,-0.00538070453
626,0.627000,2040,-8,-8,0,-8,1,-0.00589956762
627,0.628000,2040,-8,-9,-1,-9,0,-0.00608243141
628,0.629000,2040,-8,-9,-1,-9,0,-0.00639281003
629,0.630000,2039,-9,-9,0,-9,1,-0.00635122368
630,0.631000,2039,-9,-10,-1,-10,0,-0.00685994467
631,0.632000,2038,-10,-10,0,-10,1,-0.00755332597
632,0.633000,2038,-10,-11,-1,-11,0,-0.00779855484
633,0.634000,2038,-10,-9,1,-9,0,-0.00661007408
634,0.635000,2039,-9,-8,1,-8,0,-0.00593668548
635,0.636000,2040,-8,-8,0,-8,1,-0.00594005547
636,0.637000,2040,-8,-8,0,-8,1,-0.00564764906
637,0.638000,2040,-8,-8,0,-8,1,-0.00569677074
638,0.639000,2040,-8,-8,0,-8,1,-0.00566778611
639,0.640000,2041,-7,-7,0,-7,1,-0.00470184954
640,0.641000,2041,-7,-6,1,-6,0,-0.00433197292
641,0.642000,2041,-7,-7,0,-7,1,-0.00506196264
642,0.643000,2040,-8,-9,-1,-9,0,-0.00646992354
643,0.644000,2039,-9,-9,0,-9,1,-0.00662206765
644,0.645000,2039,-9,-9,0,-9,1,-0.00631642807
645,0.646000,2039,-9,-8,1,-8,0,-0.00590909552
646,0.647000,2039,-9,-8,1,-8,0,-0.00557046337
647,0.648000,2040,-8,-8,0,-8,1,-0.00587404333
648,0.649000,2040,-8,-9,-1,-9,0,-0.0061177481
649,0.650000,2040,-8,-9,-1,-9,0,-0.00634512398
650,0.651000,2040,-8,-8,0,-8,1,-0.00551167876
651,0.652000,2040,-8,-8,0,-8,1,-0.00549401017
652,0.653000,2040,-8,-8,0,-8,1,-0.0058146622
653,0.654000,2040,-8,-9,-1,-9,0,-0.00620548194
654,0.655000,2040,-8,-9,-1,-9,0,-0.00652917102
655,0.656000,2039,-9,-9,0,-9,1,-0.00609445898
656,0.657000,2040,-8,-8,0,-8,1,-0.00535411248
657,0.658000,2041,-7,-7,0,-7,1,-0.00498489756
658,0.659000,2041,-7,-7,0,-7,1,-0.0051086368
659,0.660000,2041,-7,-7,0,-7,1,-0.00502053928
660,0.661000,2041,-7,-7,0,-7,1,-0.00467490032
661,0.662000,2040,-8,-8,0,-8,1,-0.00584988995
662,0.663000,2040,-8,-9,-1,-9,0,-0.0061306837
663,0.664000,2040,-8,-9,-1,-9,0,-0.00609157747
664,0.665000,2040,-8,-9,-1,-9,0,-0.00646880828
665,0.666000,2040,-8,-9,-1,-9,0,-0.00661798241
666,0.667000,2039,-9,-9,0,-9,1,-0.00632500462
667,0.668000,2040,-8,-8,0,-8,1,-0.00579563063
668,0.669000,2040,-8,-8,0,-8,1,-0.00596807012
669,0.670000,2039,-9,-8,1,-8,0,-0.00600618962
670,0.671000,2039,-9,-9,0,-9,1,-0.00616144761
671,0.672000,2039,-9,-9,0,-9,1,-0.00646260614
672,0.673000,2038,-10,-11,-1,-11,0,-0.00766974455
673,0.674000,2037,-11,-11,0,-11,1,-0.00822818
674,0.675000,2037,-11,-11,0,-11,1,-0.00821815338
675,0.676000,2037,-11,-10,1,-10,0,-0.0073481244
676,0.677000,2038,-10,-9,1,-9,0,-0.0067082718
677,0.678000,2039,-9,-10,-1,-10,0,-0.00686741108
678,0.679000,2037,-11,-11,0,-11,1,-0.0083190389
679,0.680000,2036,-12,-12,0,-12,1,-0.00856526662
680,0.681000,2036,-12,-12,0,-12,1,-0.00847620051
681,0.682000,2037,-11,-11,0,-11,1,-0.00840334594
682,0.683000,2037,-11,-12,-1,-12,0,-0.00847554114
683,0.684000,2036,-12,-12,0,-12,1,-0.00916386116
684,0.685000,2035,-13,-13,0,-13,1,-0.00982938893
685,0.686000,2035,-13,-14,-1,-14,0,-0.0103679774
686,0.687000,2035,-13,-13,0,-13,1,-0.00978483632
687,0.688000,2035,-13,-13,0,-13,1,-0.00974916201
688,0.689000,2035,-13,-13,0,-13,1,-0.0100380993
689,0.690000,2034,-14,-14,0,-14,1,-0.0107332459
690,0.691000,2034,-14,-15,-1,-15,0,-0.0109282462
691,0.692000,2034,-14,-15,-1,-15,0,-0.0113134151
692,0.693000,2032,-16,-16,0,-16,1,-0.0118672419
693,0.694000,2032,-16,-16,0,-16,1,-0.0117180729
694,0.695000,2033,-15,-15,0,-15,1,-0.0113231307
695,0.696000,2033,-15,-15,0,-15,1,-0.0109010497
696,0.697000,2033,-15,-14,1,-14,0,-0.0105653638
697,0.698000,2035,-13,-13,0,-13,1,-0.0098811565
698,0.699000,2035,-13,-13,0,-13,1,-0.00959894527
699,0.700000,2035,-13,-13,0,-13,1,-0.00965811498
700,0.701000,2036,-12,-12,0,-12,1,-0.00876057893
701,0.702000,2036,-12,-12,0,-12,1,-0.00868587196
702,0.703000,2036,-12,-12,0,-12,1,-0.00858273543
703,0.704000,2037,-11,-11,0,-11,1,-0.00791902281
704,0.705000,2037,-11,-11,0,-11,1,-0.00782434922
705,0.706000,2037,-11,-11,0,-11,1,-0.00781865604
706,0.707000,2037,-11,-11,0,-11,1,-0.00771889044
707,0.708000,2037,-11,-10,1,-10,0,-0.00747476658
708,0.709000,2038,-10,-10,0,-10,1,-0.00754784094
709,0.710000,2038,-10,-10,0,-10,1,-0.0073765195
710,0.711000,2038,-10,-10,0,-10,1,-0.00697614253
711,0.712000,2038,-10,-10,0,-10,1,-0.00708217965
712,0.713000,2038,-10,-10,0,-10,1,-0.00696343882
713,0.714000,2039,-9,-10,-1,-10,0,-0.00708673988
714,0.715000,2036,-12,-12,0,-12,1,-0.00863139424
715,0.716000,2036,-12,-12,0,-12,1,-0.00924526434
716,0.717000,2036,-12,-12,0,-12,1,-0.00863686297
717,0.718000,2037,-11,-10,1,-10,0,-0.00730311172
718,0.719000,2038,-10,-10,0,-10,1,-0.0071998979
719,0.720000,2038,-10,-11,-1,-11,0,-0.00792878121
720,0.721000,2036,-12,-12,0,-12,1,-0.00865821075
721,0.722000,2036,-12,-12,0,-12,1,-0.00906218495
722,0.723000,2035,-13,-13,0,-13,1,-0.00970628206
723,0.724000,2035,-13,-13,0,-13,1,-0.00989612658
724,0.725000,2035,-13,-13,0,-13,1,-0.00972045772
725,0.726000,2035,-13,-13,0,-13,1,-0.00992548559
726,0.727000,2035,-13,-13,0,-13,1,-0.00968261901
727,0.728000,2035,-13,-13,0,-13,1,-0.00946276542
728,0.729000,2035,-13,-13,0,-13,1,-0.00956642348
729,0.730000,2035,-13,-13,0,-13,1,-0.00945239048
730,0.731000,2034,-14,-14,0,-14,1,-0.0103027401
731,0.732000,2033,-15,-15,0,-15,1,-0.0114864046
732,0.733000,2032,-16,-16,0,-16,1,-0.0120069692
733,0.734000,2033,-15,-15,0,-15,1,-0.0110261645
734,0.735000,2034,-14,-14,0,-14,1,-0.0105342101
735,0.736000,2034,-14,-14,0,-14,1,-0.0106941238
736,0.737000,2034,-14,-13,1,-13,0,-0.00998927653
737,0.738000,2035,-13,-13,0,-13,1,-0.00988569297
738,0.739000,2035,-13,-13,0,-13,1,-0.00981794391
739,0.740000,2036,-12,-12,0,-12,1,-0.00881042611
740,0.741000,2037,-11,-11,0,-11,1,-0.00835681614
741,0.742000,2036,-12,-12,0,-12,1,-0.00895683561
742,0.743000,2035,-13,-14,-1,-14,0,-0.0102014523
743,0.744000,2034,-14,-14,0,-14,1,-0.0101773692
744,0.745000,2034,-14,-15,-1,-15,0,-0.0108948713
745,0.746000,2033,-15,-15,0,-15,1,-0.0113108968
746,0.747000,2033,-15,-15,0,-15,1,-0.0111499811
747,0.748000,2033,-15,-15,0,-15,1,-0.0114550674
748,0.749000,2033,-15,-16,-1,-16,0,-0.0117088966
749,0.750000,2033,-15,-16,-1,-16,0,-0.0120184552
750,0.751000,2034,-14,-14,0,-14,1,-0.0107775945
751,0.752000,2034,-14,-14,0,-14,1,-0.0107816048
752,0.753000,2033,-15,-14,1,-14,0,-0.0107888617
753,0.754000,2035,-13,-13,0,-13,1,-0.00999644399
754,0.755000,2035,-13,-14,-1,-14,0,-0.0100766979
755,0.756000,2034,-14,-14,0,-14,1,-0.010591791
756,0.757000,2034,-14,-15,-1,-15,0,-0.0109998342
757,0.758000,2033,-15,-14,1,-14,0,-0.0108679784
758,0.759000,2034,-14,-14,0,-14,1,-0.0108297411
759,0.760000,2034,-14,-14,0,-14,1,-0.0104158651
760,0.761000,2035,-13,-13,0,-13,1,-0.00970716309
761,0.762000,2035,-13,-13,0,-13,1,-0.0100268675
762,0.763000,2035,-13,-13,0,-13,1,-0.00985003356
763,0.764000,2035,-13,-13,0,-13,1,-0.00972879678
764,0.765000,2034,-14,-14,0,-14,1,-0.0106356852
765,0.766000,2034,-14,-15,-1,-15,0,-0.0110706594
766,0.767000,2033,-15,-15,0,-15,1,-0.0112528428
767,0.768000,2033,-15,-15,0,-15,1,-0.011376448
768,0.769000,2033,-15,-16,-1,-16,0,-0.0119033605
769,0.770000,2032,-16,-16,0,-16,1,-0.0117741209
770,0.771000,2032,-16,-16,0,-16,1,-0.0117674973
771,0.772000,2032,-16,-16,0,-16,1,-0.0120776733
772,0.773000,2032,-16,-16,0,-16,1,-0.0118340692
773,0.774000,2032,-16,-15,1,-15,0,-0.0116137443
774,0.775000,2032,-16,-15,1,-15,0,-0.0113253947
775,0.776000,2033,-15,-14,1,-14,0,-0.0102977632
776,0.777000,2035,-13,-13,0,-13,1,-0.00948473345
777,0.778000,2035,-13,-12,1,-12,0,-0.00873704813
778,0.779000,2037,-11,-11,0,-11,1,-0.00803667679
779,0.780000,2037,-11,-10,1,-10,0,-0.00742834108
780,0.781000,2038,-10,-10,0,-10,1,-0.00727753295
781,0.782000,2038,-10,-10,0,-10,1,-0.00738513563
782,0.783000,2038,-10,-10,0,-10,1,-0.00743135205
783,0.784000,2038,-10,-9,1,-9,0,-0.00668801414
784,0.785000,2039,-9,-9,0,-9,1,-0.00640769582
785,0.786000,2039,-9,-9,0,-9,1,-0.00665504253
786,0.787000,2038,-10,-10,0,-10,1,-0.00762586622
787,0.788000,2038,-10,-11,-1,-11,0,-0.00830170326
788,0.789000,2036,-12,-11,1,-11,0,-0.00844744965
789,0.790000,2038,-10,-10,0,-10,1,-0.00707990071
790,0.791000,2038,-10,-9,1,-9,0,-0.00661228644
791,0.792000,2039,-9,-10,-1,-10,0,-0.00685670739
792,0.793000,2038,-10,-10,0,-10,1,-0.00743681192
793,0.794000,2038,-10,-10,0,-10,1,-0.00733568147
794,0.795000,2038,-10,-10,0,-10,1,-0.00695323572
795,0.796000,2038,-10,-9,1,-9,0,-0.0064910464
796,0.797000,2038,-10,-9,1,-9,0,-0.00606611511
797,0.798000,2040,-8,-9,-1,-9,0,-0.00624284847
798,0.799000,2040,-8,-9,-1,-9,0,-0.00633027544
799,0.800000,2040,-8,-9,-1,-9,0,-0.0063917106
800,0.801000,2040,-8,-9,-1,-9,0,-0.00654277485
801,0.802000,2040,-8,-9,-1,-9,0,-0.00680211699
802,0.803000,2038,-10,-9,1,-9,0,-0.00662949635
803,0.804000,2040,-8,-8,0,-8,1,-0.00558573706
804,0.805000,2040,-8,-8,0,-8,1,-0.00550303515
805,0.806000,2040,-8,-7,1,-7,0,-0.00507684657
806,0.807000,2041,-7,-7,0,-7,1,-0.00449781632
807,0.808000,2042,-6,-6,0,-6,1,-0.00432016607
808,0.809000,2041,-7,-8,-1,-8,0,-0.00549716409
809,0.810000,2040,-8,-9,-1,-9,0,-0.00607411005
810,0.811000,2039,-9,-8,1,-8,0,-0.00590056786
811,0.812000,2039,-9,-9,0,-9,1,-0.00650440203
812,0.813000,2039,-9,-9,0,-9,1,-0.00643648114
813,0.814000,2039,-9,-9,0,-9,1,-0.00628536707
814,0.815000,2038,-10,-10,0,-10,1,-0.00705372589
815,0.816000,2038,-10,-10,0,-10,1,-0.00727543095
816,0.817000,2038,-10,-10,0,-10,1,-0.00696357852
817,0.818000,2039,-9,-9,0,-9,1,-0.00641612057
818,0.819000,2039,-9,-9,0,-9,1,-0.00660571223
819,0.820000,2039,-9,-9,0,-9,1,-0.0063069202
820,0.821000,2039,-9,-9,0,-9,1,-0.00623759814
821,0.822000,2039,-9,-9,0,-9,1,-0.00656602997
822,0.823000,2039,-9,-9,0,-9,1,-0.00640419498
823,0.824000,2039,-9,-9,0,-9,1,-0.00631120335
824,0.825000,2039,-9,-9,0,-9,1,-0.00617559813
825,0.826000,2040,-8,-7,1,-7,0,-0.00473585306
826,0.827000,2042,-6,-6,0,-6,1,-0.0038647647
827,0.828000,2043,-5,-5,0,-5,1,-0.00283675385
828,0.829000,2044,-4,-3,1,-3,0,-0.00125547533
829,0.830000,2046,-2,-1,1,-1,0,-0.000376210577
830,0.831000,2047,-1,-1,0,-1,1,-0.000127772975
831,0.832000,2047,-1,-1,0,-1,1,-0.000146631661
832,0.833000,2047,-1,-1,0,-1,1,-6.20795981e-05
833,0.834000,2047,-1,-1,0,-1,1,-3.86239335e-05
834,0.835000,2047,-1,-1,0,-1,1,-0.00013137667
835,0.836000,2047,-1,-1,0,-1,1,-0.000341008592
836,0.837000,2047,-1,-1,0,-1,1,-0.000105909698
837,0.838000,2047,-1,-1,0,-1,1,-0.000222634306
838,0.839000,2046,-2,-1,1,-1,0,-0.000143819838
839,0.840000,2048,0,1,1,1,0,0.00167955481
840,0.841000,2049,1,2,1,2,0,0.00213971804
841,0.842000,2049,1,2,1,2,0,0.00220476952
842,0.843000,2050,2,2,0,2,1,0.00225621345
843,0.844000,2050,2,2,0,2,1,0.00242789066
844,0.845000,2050,2,2,0,2,1,0.0023446714
845,0.846000,2050,2,2,0,2,1,0.00244678743
846,0.847000,2050,2,3,1,3,0,0.00282953796
847,0.848000,2053,5,7,2,7,0,0.00622727023
848,0.849000,2055,7,9,2,9,0,0.00813276134
849,0.850000,2057,9,10,1,10,0,0.00878350995
850,0.851000,2059,11,11,0,11,1,0.00948363543
851,0.852000,2059,11,11,0,11,1,0.00959723629
852,0.853000,2059,11,11,0,11,1,0.00999089517
853,0.854000,2061,13,13,0,13,1,0.011231292
854,0.855000,2061,13,13,0,13,1,0.011514077
855,0.856000,2061,13,14,1,14,0,0.0118226325
856,0.857000,2061,13,14,1,14,0,0.0121837407
857,0.858000,2061,13,14,1,14,0,0.0123570645
858,0.859000,2062,14,14,0,14,1,0.0120908711
859,0.860000,2062,14,14,0,14,1,0.0120454002
860,0.861000,2062,14,14,0,14,1,0.0122562172
861,0.862000,2062,14,13,-1,13,0,0.0114814397
862,0.863000,2061,13,13,0,13,1,0.0113033149
863,0.864000,2061,13,13,0,13,1,0.0111145983
864,0.865000,2059,11,11,0,11,1,0.00960825011
865,0.866000,2059,11,10,-1,10,0,0.00907247607
866,0.867000,2058,10,11,1,11,0,0.00927242823
867,0.868000,2059,11,11,0,11,1,0.00981558766
868,0.869000,2059,11,11,0,11,1,0.00968093891
869,0.870000,2059,11,10,-1,10,0,0.00887212623
870,0.871000,2058,10,9,-1,9,0,0.00806542393
871,0.872000,2057,9,8,-1,8,0,0.00753288902
872,0.873000,2057,9,8,-1,8,0,0.00719342986
873,0.874000,2057,9,8,-1,8,0,0.00702507049
874,0.875000,2056,8,8,0,8,1,0.00701518077
875,0.876000,2056,8,8,0,8,1,0.00714264112
876,0.877000,2056,8,8,0,8,1,0.00737397745
877,0.878000,2056,8,8,0,8,1,0.00749488221
878,0.879000,2056,8,8,0,8,1,0.00732726278
879,0.880000,2056,8,8,0,8,1,0.00745398877
880,0.881000,2056,8,8,0,8,1,0.0073152408
881,0.882000,2056,8,8,0,8,1,0.00704152836
882,0.883000,2056,8,8,0,8,1,0.00692589907
883,0.884000,2056,8,7,-1,7,0,0.00633819774
884,0.885000,2055,7,6,-1,6,0,0.00583368121
885,0.886000,2055,7,6,-1,6,0,0.00546319829
886,0.887000,2054,6,6,0,6,1,0.00565089751
887,0.888000,2054,6,6,0,6,1,0.00554203382
888,0.889000,2054,6,6,0,6,1,0.00556557579
889,0.890000,2055,7,8,1,8,0,0.00690665562
890,0.891000,2056,8,8,0,8,1,0.00724273268
891,0.892000,2056,8,9,1,9,0,0.00778884627
892,0.893000,2057,9,10,1,10,0,0.00869796332
893,0.894000,2058,10,10,0,10,1,0.00911347941
894,0.895000,2058,10,11,1,11,0,0.00982799288
895,0.896000,2060,12,12,0,12,1,0.0104919542
896,0.897000,2060,12,13,1,13,0,0.0109628486
897,0.898000,2056,8,8,0,8,1,0.00742195873
898,0.899000,2054,6,6,0,6,1,0.00573015213
899,0.900000,2054,6,6,0,6,1,0.00545678427
900,0.901000,2049,1,0,-1,0,0,0.000999248703
901,0.902000,2047,-1,-2,-1,-2,0,-0.000556525192
902,0.903000,2047,-1,-2,-1,-2,0,-0.00110765419
903,0.904000,2045,-3,-3,0,-3,1,-0.0015301141
904,0.905000,2045,-3,-4,-1,-4,0,-0.00211658818
905,0.906000,2043,-5,-6,-1,-6,0,-0.00383737055
906,0.907000,2041,-7,-8,-1,-8,0,-0.00589807611
907,0.908000,2039,-9,-10,-1,-10,0,-0.00717175147
908,0.909000,2037,-11,-12,-1,-12,0,-0.00895983633
909,0.910000,2035,-13,-14,-1,-14,0,-0.0101529714
910,0.911000,2034,-14,-14,0,-14,1,-0.0106714852
911,0.912000,2032,-16,-17,-1,-17,0,-0.0129255494
912,0.913000,2030,-18,-18,0,-18,1,-0.0136802346
913,0.914000,2030,-18,-18,0,-18,1,-0.0135734323
914,0.915000,2030,-18,-17,1,-17,0,-0.0131459907
915,0.916000,2030,-18,-17,1,-17,0,-0.0126562603
916,0.917000,2032,-16,-16,0,-16,1,-0.0119965132
917,0.918000,2033,-15,-15,0,-15,1,-0.0113045555
918,0.919000,2033,-15,-15,0,-15,1,-0.011086802
919,0.920000,2034,-14,-14,0,-14,1,-0.0103545832
920,0.921000,2035,-13,-13,0,-13,1,-0.00994835887
921,0.922000,2034,-14,-14,0,-14,1,-0.0100979405
922,0.923000,2033,-15,-15,0,-15,1,-0.0109204836
923,0.924000,2033,-15,-15,0,-15,1,-0.0115024531
924,0.925000,2033,-15,-16,-1,-16,0,-0.0117998105
925,0.926000,2032,-16,-15,1,-15,0,-0.0113250343
926,0.927000,2032,-16,-15,1,-15,0,-0.0110554229
927,0.928000,2034,-14,-15,-1,-15,0,-0.0111478604
928,0.929000,2032,-16,-16,0,-16,1,-0.011795152
929,0.930000,2032,-16,-16,0,-16,1,-0.0117425388
930,0.931000,2032,-16,-16,0,-16,1,-0.0123753715
931,0.932000,2031,-17,-17,0,-17,1,-0.0131807355
932,0.933000,2031,-17,-17,0,-17,1,-0.0132514564
933,0.934000,2031,-17,-18,-1,-18,0,-0.0136137139
934,0.935000,2031,-17,-18,-1,-18,0,-0.013886258
935,0.936000,2031,-17,-18,-1,-18,0,-0.0140957562
936,0.937000,2030,-18,-18,0,-18,1,-0.0138473734
937,0.938000,2030,-18,-18,0,-18,1,-0.013996657
938,0.939000,2029,-19,-19,0,-19,1,-0.0143664395
939,0.940000,2029,-19,-19,0,-19,1,-0.0147818374
940,0.941000,2029,-19,-20,-1,-20,0,-0.0151373716
941,0.942000,2028,-20,-21,-1,-21,0,-0.0158561748
942,0.943000,2026,-22,-22,0,-22,1,-0.0167747736
943,0.944000,2026,-22,-22,0,-22,1,-0.0169359669
944,0.945000,2026,-22,-21,1,-21,0,-0.016347954
945,0.946000,2027,-21,-20,1,-20,0,-0.0156759359
946,0.947000,2027,-21,-20,1,-20,0,-0.0151834432
947,0.948000,2028,-20,-21,-1,-21,0,-0.015775159
948,0.949000,2027,-21,-21,0,-21,1,-0.0159797072
949,0.950000,2027,-21,-21,0,-21,1,-0.0159088187
950,0.951000,2029,-19,-17,2,-17,0,-0.0129798139
951,0.952000,2031,-17,-16,1,-16,0,-0.0119848689
952,0.953000,2032,-16,-16,0,-16,1,-0.0120270522
953,0.954000,2031,-17,-17,0,-17,1,-0.0126872854
954,0.955000,2031,-17,-17,0,-17,1,-0.0130895237
955,0.956000,2031,-17,-17,0,-17,1,-0.0130155254
956,0.957000,2031,-17,-17,0,-17,1,-0.0127327582
957,0.958000,2031,-17,-17,0,-17,1,-0.0125901764
958,0.959000,2032,-16,-15,1,-15,0,-0.0115332222
959,0.960000,2033,-15,-14,1,-14,0,-0.0107340235
960,0.961000,2033,-15,-14,1,-14,0,-0.0102903275
961,0.962000,2032,-16,-17,-1,-17,0,-0.012614687
962,0.963000,2031,-17,-18,-1,-18,0,-0.0134300143
963,0.964000,2030,-18,-18,0,-18,1,-0.013604939
964,0.965000,2030,-18,-19,-1,-19,0,-0.0144347362
965,0.966000,2029,-19,-19,0,-19,1,-0.0145777874
966,0.967000,2030,-18,-18,0,-18,1,-0.0138663203
967,0.968000,2031,-17,-17,0,-17,1,-0.0127044357
968,0.969000,2031,-17,-17,0,-17,1,-0.0125726657
969,0.970000,2032,-16,-16,0,-16,1,-0.0120784398
970,0.971000,2032,-16,-16,0,-16,1,-0.0118817398
971,0.972000,2032,-16,-16,0,-16,1,-0.0121324221
972,0.973000,2032,-16,-16,0,-16,1,-0.0119359698
973,0.974000,2032,-16,-16,0,-16,1,-0.0118463831
974,0.975000,2032,-16,-16,0,-16,1,-0.0117449444
975,0.976000,2032,-16,-16,0,-16,1,-0.0120677697
976,0.977000,2032,-16,-16,0,-16,1,-0.0118600894
977,0.978000,2033,-15,-16,-1,-16,0,-0.0120652225
978,0.979000,2031,-17,-18,-1,-18,0,-0.0133794229
979,0.980000,2030,-18,-18,0,-18,1,-0.013405974
980,0.981000,2030,-18,-18,0,-18,1,-0.0140066026
981,0.982000,2029,-19,-19,0,-19,1,-0.0148530966
982,0.983000,2029,-19,-20,-1,-20,0,-0.0150937047
983,0.984000,2029,-19,-19,0,-19,1,-0.0148531497
984,0.985000,2029,-19,-20,-1,-20,0,-0.0149284704
985,0.986000,2028,-20,-20,0,-20,1,-0.015384376
986,0.987000,2025,-23,-24,-1,-24,0,-0.0181536041
987,0.988000,2023,-25,-25,0,-25,1,-0.0197284948
988,0.989000,2021,-27,-27,0,-28,1,-0.0213585123
989,0.990000,2016,-32,-34,-2,-34,0,-0.0265444834
990,0.991000,2013,-35,-36,-1,-36,0,-0.0282407124
991,0.992000,2011,-37,-38,-1,-38,0,-0.0295641869
992,0.993000,2008,-40,-40,0,-40,1,-0.0311237108
993,0.994000,2008,-40,-40,0,-40,1,-0.0313813798
994,0.995000,2006,-42,-43,-1,-43,0,-0.0336472057
995,0.996000,2004,-44,-45,-1,-45,0,-0.0354558676
996,0.997000,2003,-45,-46,-1,-46,0,-0.0360216461
997,0.998000,2000,-48,-50,-2,-50,0,-0.0397397056
998,0.999000,1995,-53,-53,0,-53,1,-0.0418336168
999,1.000000,1995,-53,-54,-1,-54,0,-0.0427450165
1000,1.001000,1991,-57,-58,-1,-58,0,-0.0461879447
1001,1.002000,1989,-59,-60,-1,-60,0,-0.047752399
1002,1.003000,1988,-60,-60,0,-60,1,-0.047550153
1003,1.004000,1990,-58,-57,1,-57,0,-0.0452880673
1004,1.005000,1991,-57,-57,0,-57,1,-0.0448784083
1005,1.006000,1997,-51,-50,1,-50,0,-0.0394792594
1006,1.007000,2006,-42,-42,0,-42,1,-0.0328877755
1007,1.008000,2008,-40,-39,1,-39,0,-0.0309390128
1008,1.009000,2021,-27,-26,1,-26,0,-0.0200914405
1009,1.010000,2027,-21,-17,4,-17,0,-0.0130761042
1010,1.011000,2032,-16,-14,2,-14,0,-0.0105098523
1011,1.012000,2048,0,6,6,6,0,0.00582729001
1012,1.013000,2063,15,16,1,16,0,0.0135912299
1013,1.014000,2069,21,23,2,23,0,0.0195883438
1014,1.015000,2091,43,45,2,45,0,0.0370766222
1015,1.016000,2098,50,54,4,54,0,0.0440095365
1016,1.017000,2119,71,73,2,73,0,0.0595512278
1017,1.018000,2144,96,102,6,102,0,0.0830368027
1018,1.019000,2159,111,113,2,113,0,0.0915179551
1019,1.020000,2187,139,142,3,142,0,0.115025021
1020,1.021000,2206,158,164,6,164,0,0.133178279
1021,1.022000,2218,170,172,2,172,0,0.139463261
1022,1.023000,2251,203,203,0,203,1,0.164699435
1023,1.024000,2267,219,220,1,220,0,0.178327754
1024,1.025000,2273,225,227,2,227,0,0.18367599
1025,1.026000,2301,253,253,0,253,1,0.204374433
1026,1.027000,2309,261,264,3,264,0,0.21340625
1027,1.028000,2319,271,272,1,272,0,0.220245734
1028,1.029000,2326,278,284,6,284,0,0.229740649
1029,1.030000,2332,284,290,6,290,0,0.234647349
1030,1.031000,2340,292,291,-1,291,0,0.235613137
1031,1.032000,2339,291,291,0,291,1,0.23519434
1032,1.033000,2339,291,292,1,292,0,0.23590672
1033,1.034000,2324,276,276,0,276,1,0.223047957
1034,1.035000,2316,268,265,-3,265,0,0.214327276
1035,1.036000,2311,263,261,-2,261,0,0.21094653
1036,1.037000,2276,228,223,-5,223,0,0.180501342
1037,1.038000,2261,213,205,-8,205,0,0.166046754
1038,1.039000,2241,193,190,-3,190,0,0.154020071
1039,1.040000,2193,145,143,-2,143,0,0.11583773
1040,1.041000,2180,132,125,-7,125,0,0.101227932
1041,1.042000,2156,108,100,-8,100,0,0.0811662227
1042,1.043000,2115,67,65,-2,65,0,0.0533367805
1043,1.044000,2104,56,51,-5,51,0,0.0419189744
1044,1.045000,2085,37,28,-9,28,0,0.0232018176
1045,1.046000,2064,16,9,-7,9,0,0.00831439812
1046,1.047000,2054,6,0,-6,0,0,0.00096704904
1047,1.048000,2030,-18,-20,-2,-20,0,-0.0156694148
1048,1.049000,2020,-28,-33,-5,-33,0,-0.0257107019
1049,1.050000,2012,-36,-39,-3,-39,0,-0.0307422187
1050,1.051000,1999,-49,-51,-2,-51,0,-0.0405619554
1051,1.052000,1993,-55,-57,-2,-57,0,-0.0449200869
1052,1.053000,1989,-59,-60,-1,-60,0,-0.0475850031
1053,1.054000,1985,-63,-64,-1,-64,0,-0.0505576693
1054,1.055000,1984,-64,-65,-1,-65,0,-0.0512371808
1055,1.056000,1985,-63,-63,0,-63,1,-0.0496954061
1056,1.057000,1987,-61,-60,1,-60,0,-0.0474770814
1057,1.058000,1987,-61,-58,3,-58,0,-0.0462240204
1058,1.059000,1993,-55,-54,1,-54,0,-0.0427183099
1059,1.060000,1995,-53,-51,2,-51,0,-0.0404340439
1060,1.061000,1998,-50,-50,0,-50,1,-0.0395936184
1061,1.062000,2001,-47,-45,2,-45,0,-0.0356052779
1062,1.063000,2003,-45,-43,2,-43,0,-0.0339955352
1063,1.064000,2005,-43,-43,0,-43,1,-0.033633247
1064,1.065000,2005,-43,-43,0,-43,1,-0.0336233079
1065,1.066000,2005,-43,-43,0,-43,1,-0.0336011872
1066,1.067000,2005,-43,-42,1,-42,0,-0.0331861377
1067,1.068000,2005,-43,-41,2,-41,0,-0.0324141681
1068,1.069000,2007,-41,-40,1,-40,0,-0.0317884311
1069,1.070000,2008,-40,-40,0,-40,1,-0.0315699093
1070,1.071000,2008,-40,-40,0,-40,1,-0.0312787332
1071,1.072000,2008,-40,-39,1,-39,0,-0.0308014061
1072,1.073000,2010,-38,-37,1,-37,0,-0.0293565784
1073,1.074000,2011,-37,-36,1,-36,0,-0.0285077281
1074,1.075000,2011,-37,-36,1,-36,0,-0.0281978156
1075,1.076000,2012,-36,-36,0,-36,1,-0.0281778127
1076,1.077000,2012,-36,-36,0,-36,1,-0.0283240918
1077,1.078000,2012,-36,-36,0,-36,1,-0.0285565779
1078,1.079000,2011,-37,-37,0,-37,1,-0.0288115907
1079,1.080000,2011,-37,-37,0,-37,1,-0.0290357042
1080,1.081000,2010,-38,-38,0,-38,1,-0.0301170927
1081,1.082000,2009,-39,-40,-1,-40,0,-0.0313054286
1082,1.083000,2008,-40,-40,0,-40,1,-0.0315783694
1083,1.084000,2008,-40,-39,1,-39,0,-0.0305758733
1084,1.085000,2009,-39,-38,1,-38,0,-0.0297464151
1085,1.086000,2010,-38,-37,1,-37,0,-0.0292933173
1086,1.087000,2010,-38,-37,1,-37,0,-0.0289965682
1087,1.088000,2010,-38,-37,1,-37,0,-0.0287788343
1088,1.089000,2011,-37,-37,0,-37,1,-0.0286152847
1089,1.090000,2011,-37,-36,1,-36,0,-0.028498007
1090,1.091000,2011,-37,-36,1,-36,0,-0.0284221545
1091,1.092000,2012,-36,-36,0,-36,1,-0.0278926995
1092,1.093000,2013,-35,-35,0,-35,1,-0.0270295646
1093,1.094000,2014,-34,-34,0,-34,1,-0.0267719533
1094,1.095000,2013,-35,-36,-1,-36,0,-0.0283071399
1095,1.096000,2011,-37,-38,-1,-38,0,-0.0295763686
1096,1.097000,2010,-38,-38,0,-38,1,-0.029895816
1097,1.098000,2009,-39,-40,-1,-40,0,-0.031332653
1098,1.099000,2008,-40,-41,-1,-41,0,-0.0319383256
1099,1.100000,2007,-41,-41,0,-41,1,-0.0319714807
1100,1.101000,2007,-41,-41,0,-41,1,-0.0318618044
1101,1.102000,2007,-41,-40,1,-40,0,-0.0317791477
1102,1.103000,2008,-40,-40,0,-40,1,-0.0314387754
1103,1.104000,2008,-40,-39,1,-39,0,-0.0305839367
1104,1.105000,2009,-39,-39,0,-39,1,-0.0304489527
1105,1.106000,2009,-39,-39,0,-39,1,-0.0302641988
1106,1.107000,2009,-39,-38,1,-38,0,-0.0300614499
1107,1.108000,2009,-39,-38,1,-38,0,-0.0300750602
1108,1.109000,2010,-38,-38,0,-38,1,-0.0296315216
1109,1.110000,2010,-38,-37,1,-37,0,-0.029251283
1110,1.111000,2010,-38,-37,1,-37,0,-0.0289584994
1111,1.112000,2010,-38,-39,-1,-39,0,-0.0302258208
1112,1.113000,2009,-39,-39,0,-39,1,-0.0305108353
1113,1.114000,2009,-39,-38,1,-38,0,-0.0300744474
1114,1.115000,2011,-37,-37,0,-37,1,-0.0286146272
1115,1.116000,2012,-36,-36,0,-36,1,-0.0279081725
1116,1.117000,2013,-35,-35,0,-35,1,-0.027087966
1117,1.118000,2014,-34,-33,1,-33,0,-0.0261306949
1118,1.119000,2015,-33,-33,0,-33,1,-0.0259126239
1119,1.120000,2015,-33,-32,1,-32,0,-0.0252022687
1120,1.121000,2016,-32,-32,0,-32,1,-0.0247449949
1121,1.122000,2016,-32,-32,0,-32,1,-0.0247440971
1122,1.123000,2015,-33,-34,-1,-34,0,-0.0263105016
1123,1.124000,2014,-34,-35,-1,-35,0,-0.0270976163
1124,1.125000,2013,-35,-35,0,-35,1,-0.0272019282
1125,1.126000,2013,-35,-35,0,-35,1,-0.0270009413
1126,1.127000,2013,-35,-34,1,-34,0,-0.0266705174
1127,1.128000,2014,-34,-34,0,-34,1,-0.0268205069
1128,1.129000,2012,-36,-36,0,-36,1,-0.0279038623
1129,1.130000,2012,-36,-36,0,-36,1,-0.0280755702
1130,1.131000,2012,-36,-36,0,-36,1,-0.0283048842
1131,1.132000,2012,-36,-37,-1,-37,0,-0.0286127832
1132,1.133000,2012,-36,-37,-1,-37,0,-0.0287545715
1133,1.134000,2012,-36,-37,-1,-37,0,-0.0289204158
1134,1.135000,2012,-36,-37,-1,-37,0,-0.0291554518
1135,1.136000,2012,-36,-38,-2,-38,0,-0.029442383
1136,1.137000,2013,-35,-35,0,-35,1,-0.0276071597
1137,1.138000,2013,-35,-34,1,-34,0,-0.0269630942
1138,1.139000,2014,-34,-34,0,-34,1,-0.0269116145
1139,1.140000,2014,-34,-34,0,-34,1,-0.0269555207
1140,1.141000,2014,-34,-34,0,-34,1,-0.0268960744
1141,1.142000,2014,-34,-34,0,-34,1,-0.0269143134
1142,1.143000,2013,-35,-34,1,-34,0,-0.0269512236
1143,1.144000,2013,-35,-34,1,-34,0,-0.0265746713
1144,1.145000,2014,-34,-34,0,-34,1,-0.026833782
1145,1.146000,2014,-34,-34,0,-34,1,-0.0269277003
1146,1.147000,2014,-34,-34,0,-34,1,-0.0266416054
1147,1.148000,2014,-34,-35,-1,-35,0,-0.0273255818
1148,1.149000,2013,-35,-35,0,-35,1,-0.0276693106
1149,1.150000,2013,-35,-36,-1,-36,0,-0.0278234389
1150,1.151000,2014,-34,-34,0,-34,1,-0.0263275821
1151,1.152000,2014,-34,-33,1,-33,0,-0.0260565039
1152,1.153000,2014,-34,-34,0,-34,1,-0.026673317
1153,1.154000,2013,-35,-36,-1,-36,0,-0.0280590206
1154,1.155000,2012,-36,-37,-1,-37,0,-0.028760422
1155,1.156000,2011,-37,-37,0,-37,1,-0.0287831351
1156,1.157000,2011,-37,-36,1,-36,0,-0.0284832455
1157,1.158000,2011,-37,-36,1,-36,0,-0.0282503143
1158,1.159000,2012,-36,-36,0,-36,1,-0.0283964798
1159,1.160000,2012,-36,-36,0,-36,1,-0.0282890089
1160,1.161000,2012,-36,-36,0,-36,1,-0.0279080421
1161,1.162000,2012,-36,-36,0,-36,1,-0.0279739313
1162,1.163000,2012,-36,-35,1,-35,0,-0.0277540144
1163,1.164000,2013,-35,-35,0,-35,1,-0.0273641404
1164,1.165000,2014,-34,-34,0,-34,1,-0.026612727
1165,1.166000,2014,-34,-34,0,-34,1,-0.0263574589
1166,1.167000,2014,-34,-33,1,-33,0,-0.0258865468
1167,1.168000,2015,-33,-32,1,-32,0,-0.0252140854
1168,1.169000,2016,-32,-32,0,-32,1,-0.0252128355
1169,1.170000,2016,-32,-33,-1,-33,0,-0.025432311
1170,1.171000,2015,-33,-33,0,-33,1,-0.0256640911
1171,1.172000,2015,-33,-33,0,-33,1,-0.025806373
1172,1.173000,2015,-33,-32,1,-32,0,-0.0253207684
1173,1.174000,2015,-33,-32,1,-32,0,-0.0249278434
1174,1.175000,2015,-33,-32,1,-32,0,-0.0245920401
1175,1.176000,2018,-30,-30,0,-30,1,-0.0236504264
1176,1.177000,2018,-30,-30,0,-30,1,-0.0230362564
1177,1.178000,2019,-29,-30,-1,-30,0,-0.023075033
1178,1.179000,2017,-31,-31,0,-31,1,-0.0240929872
1179,1.180000,2017,-31,-31,0,-31,1,-0.0242013279
1180,1.181000,2017,-31,-31,0,-31,1,-0.0243595596
1181,1.182000,2017,-31,-32,-1,-32,0,-0.0245927777
1182,1.183000,2017,-31,-32,-1,-32,0,-0.0246652979
1183,1.184000,2017,-31,-30,1,-30,0,-0.0229883417
1184,1.185000,2020,-28,-28,0,-28,1,-0.0220495258
1185,1.186000,2020,-28,-28,0,-28,1,-0.0220193155
1186,1.187000,2019,-29,-29,0,-29,1,-0.0222940389
1187,1.188000,2019,-29,-29,0,-29,1,-0.0225980449
1188,1.189000,2019,-29,-29,0,-29,1,-0.0227085464
1189,1.190000,2019,-29,-29,0,-29,1,-0.0222189911
1190,1.191000,2019,-29,-28,1,-28,0,-0.0219126847
1191,1.192000,2019,-29,-28,1,-28,0,-0.0215756297
1192,1.193000,2019,-29,-27,2,-27,0,-0.0211563054
1193,1.194000,2019,-29,-27,2,-27,0,-0.0206736568
1194,1.195000,2021,-27,-28,-1,-28,0,-0.0221586954
1195,1.196000,2018,-30,-30,0,-30,1,-0.0233009569
1196,1.197000,2018,-30,-30,0,-30,1,-0.0233814828
1197,1.198000,2018,-30,-29,1,-29,0,-0.0227118712
1198,1.199000,2018,-30,-29,1,-29,0,-0.0223465431
1199,1.200000,2018,-30,-29,1,-29,0,-0.0223475974
1200,1.201000,2020,-28,-28,0,-28,1,-0.0214602761
1201,1.202000,2020,-28,-28,0,-28,1,-0.0214689504
1202,1.203000,2020,-28,-28,0,-28,1,-0.0216778386
1203,1.204000,2020,-28,-28,0,-28,1,-0.0216591172
1204,1.205000,2020,-28,-28,0,-28,1,-0.0218838714
1205,1.206000,2020,-28,-27,1,-27,0,-0.0211252645
1206,1.207000,2022,-26,-26,0,-26,1,-0.0199846812
1207,1.208000,2022,-26,-25,1,-25,0,-0.0194412284
1208,1.209000,2022,-26,-26,0,-26,1,-0.0203274861
1209,1.210000,2021,-27,-27,0,-27,1,-0.0206582341
1210,1.211000,2021,-27,-26,1,-26,0,-0.0202843584
1211,1.212000,2022,-26,-26,0,-26,1,-0.0202097371
1212,1.213000,2022,-26,-26,0,-26,1,-0.0198318698
1213,1.214000,2023,-25,-25,0,-25,1,-0.0196898486
1214,1.215000,2022,-26,-27,-1,-27,0,-0.0210083835
1215,1.216000,2021,-27,-28,-1,-28,0,-0.0214634128
1216,1.217000,2020,-28,-27,1,-27,0,-0.0212653466
1217,1.218000,2021,-27,-27,0,-27,1,-0.0207819715
1218,1.219000,2021,-27,-27,0,-27,1,-0.021007102
1219,1.220000,2021,-27,-27,0,-27,1,-0.0207191855
1220,1.221000,2021,-27,-27,0,-27,1,-0.0206354167
1221,1.222000,2021,-27,-27,0,-27,1,-0.0209239312
1222,1.223000,2021,-27,-27,0,-27,1,-0.0211912394
1223,1.224000,2021,-27,-27,0,-27,1,-0.0212704167
1224,1.225000,2021,-27,-27,0,-27,1,-0.0211080816
1225,1.226000,2021,-27,-26,1,-26,0,-0.0201478247
1226,1.227000,2022,-26,-25,1,-25,0,-0.0193826165
1227,1.228000,2024,-24,-25,-1,-25,0,-0.0193569567
1228,1.229000,2022,-26,-27,-1,-27,0,-0.0205735974
1229,1.230000,2021,-27,-27,0,-27,1,-0.020559296
1230,1.231000,2022,-26,-27,-1,-27,0,-0.0208341833
1231,1.232000,2021,-27,-27,0,-27,1,-0.0212965962
1232,1.233000,2021,-27,-28,-1,-28,0,-0.0214241054
1233,1.234000,2020,-28,-28,0,-28,1,-0.021607345
1234,1.235000,2020,-28,-28,0,-28,1,-0.0219608676
1235,1.236000,2020,-28,-29,-1,-29,0,-0.0224743932
1236,1.237000,2020,-28,-28,0,-28,1,-0.0214816481
1237,1.238000,2020,-28,-28,0,-28,1,-0.0214144234
1238,1.239000,2020,-28,-28,0,-28,1,-0.0216768999
1239,1.240000,2020,-28,-28,0,-28,1,-0.0214987211
1240,1.241000,2020,-28,-28,0,-28,1,-0.0214909576
1241,1.242000,2020,-28,-28,0,-28,1,-0.021842679
1242,1.243000,2019,-29,-29,0,-29,1,-0.022335384
1243,1.244000,2019,-29,-28,1,-28,0,-0.0220316853
1244,1.245000,2020,-28,-29,-1,-29,0,-0.0221778452
1245,1.246000,2019,-29,-28,1,-28,0,-0.0220728014
1246,1.247000,2020,-28,-28,0,-28,1,-0.0215637907
1247,1.248000,2020,-28,-28,0,-28,1,-0.0215529352
1248,1.249000,2020,-28,-28,0,-28,1,-0.021492701
1249,1.250000,2020,-28,-28,0,-28,1,-0.0215025116
1250,1.251000,2020,-28,-28,0,-28,1,-0.0217091944
1251,1.252000,2020,-28,-28,0,-28,1,-0.0221164618
1252,1.253000,2019,-29,-29,0,-29,1,-0.0223245788
1253,1.254000,2020,-28,-28,0,-28,1,-0.0219865609
1254,1.255000,2019,-29,-29,0,-29,1,-0.0222668108
1255,1.256000,2019,-29,-30,-1,-30,0,-0.0229683705
1256,1.257000,2018,-30,-30,0,-30,1,-0.0236188844
1257,1.258000,2017,-31,-31,0,-31,1,-0.0237818025
1258,1.259000,2017,-31,-31,0,-31,1,-0.0245036595
1259,1.260000,2016,-32,-32,0,-32,1,-0.0246632006
1260,1.261000,2016,-32,-31,1,-31,0,-0.0242550652
1261,1.262000,2017,-31,-30,1,-30,0,-0.0231142864
1262,1.263000,2017,-31,-29,2,-29,0,-0.0222777035
1263,1.264000,2020,-28,-28,0,-28,1,-0.0219917651
1264,1.265000,2019,-29,-30,-1,-30,0,-0.0232457109
1265,1.266000,2018,-30,-30,0,-30,1,-0.0236276723
1266,1.267000,2018,-30,-30,0,-30,1,-0.0235669762
1267,1.268000,2018,-30,-30,0,-30,1,-0.0233692341
1268,1.269000,2018,-30,-30,0,-30,1,-0.0235677306
1269,1.270000,2018,-30,-31,-1,-31,0,-0.0239469148
1270,1.271000,2017,-31,-31,0,-31,1,-0.0243740529
1271,1.272000,2017,-31,-32,-1,-32,0,-0.0247552358
1272,1.273000,2016,-32,-31,1,-31,0,-0.0240387749
1273,1.274000,2017,-31,-30,1,-30,0,-0.0236448199
1274,1.275000,2018,-30,-30,0,-30,1,-0.0234553348
1275,1.276000,2017,-31,-31,0,-31,1,-0.0243619047
1276,1.277000,2017,-31,-31,0,-31,1,-0.024415914
1277,1.278000,2017,-31,-32,-1,-32,0,-0.0247462187
1278,1.279000,2015,-33,-33,0,-33,1,-0.0261332933
1279,1.280000,2014,-34,-34,0,-34,1,-0.0262066778
1280,1.281000,2015,-33,-34,-1,-34,0,-0.0262129568
1281,1.282000,2015,-33,-34,-1,-34,0,-0.026304191
1282,1.283000,2015,-33,-34,-1,-34,0,-0.0263007209
1283,1.284000,2014,-34,-33,1,-33,0,-0.0259745996
1284,1.285000,2015,-33,-33,0,-33,1,-0.0259845704
1285,1.286000,2014,-34,-34,0,-34,1,-0.0263462197
1286,1.287000,2015,-33,-32,1,-32,0,-0.0252521615
1287,1.288000,2016,-32,-32,0,-32,1,-0.0250858441
1288,1.289000,2016,-32,-33,-1,-33,0,-0.0255108159
1289,1.290000,2015,-33,-34,-1,-34,0,-0.0268018078
1290,1.291000,2014,-34,-35,-1,-35,0,-0.0271878242
1291,1.292000,2013,-35,-35,0,-35,1,-0.0273215715
1292,1.293000,2013,-35,-35,0,-35,1,-0.0273367111
1293,1.294000,2013,-35,-34,1,-34,0,-0.0268857032
1294,1.295000,2014,-34,-34,0,-34,1,-0.0266627576
1295,1.296000,2014,-34,-34,0,-34,1,-0.0263631865
1296,1.297000,2014,-34,-33,1,-33,0,-0.0259388722
1297,1.298000,2014,-34,-35,-1,-35,0,-0.0270845778
1298,1.299000,2013,-35,-35,0,-35,1,-0.0276981592
1299,1.300000,2013,-35,-36,-1,-36,0,-0.0279539004
1300,1.301000,2013,-35,-35,0,-35,1,-0.0270741954
1301,1.302000,2013,-35,-35,0,-35,1,-0.0270375051
1302,1.303000,2013,-35,-35,0,-35,1,-0.0272254869
1303,1.304000,2013,-35,-35,0,-35,1,-0.0272361208
1304,1.305000,2013,-35,-35,0,-35,1,-0.0275410004
1305,1.306000,2013,-35,-35,0,-35,1,-0.0275205132
1306,1.307000,2013,-35,-35,0,-35,1,-0.0272747353
1307,1.308000,2013,-35,-35,0,-35,1,-0.0270873047
1308,1.309000,2014,-34,-35,-1,-35,0,-0.0272296183
1309,1.310000,2013,-35,-35,0,-35,1,-0.0270597562
1310,1.311000,2013,-35,-34,1,-34,0,-0.026565792
1311,1.312000,2013,-35,-35,0,-35,1,-0.0275514163
1312,1.313000,2013,-35,-35,0,-35,1,-0.0276252609
1313,1.314000,2013,-35,-35,0,-35,1,-0.0273835342
1314,1.315000,2013,-35,-35,0,-35,1,-0.0275813602
1315,1.316000,2013,-35,-35,0,-35,1,-0.0275884029
1316,1.317000,2013,-35,-34,1,-34,0,-0.0269542746
1317,1.318000,2015,-33,-33,0,-33,1,-0.0259506386
1318,1.319000,2015,-33,-33,0,-33,1,-0.0259859841
1319,1.320000,2015,-33,-33,0,-33,1,-0.0256237667
1320,1.321000,2015,-33,-33,0,-33,1,-0.0254973099
1321,1.322000,2015,-33,-33,0,-33,1,-0.0257437564
1322,1.323000,2015,-33,-33,0,-33,1,-0.0254683141
1323,1.324000,2015,-33,-32,1,-32,0,-0.0252354015
1324,1.325000,2015,-33,-32,1,-32,0,-0.0249449015
1325,1.326000,2016,-32,-31,1,-31,0,-0.0239181295
1326,1.327000,2018,-30,-30,0,-30,1,-0.0231025219
1327,1.328000,2019,-29,-29,0,-29,1,-0.0221726093
1328,1.329000,2020,-28,-27,1,-27,0,-0.0209763739
1329,1.330000,2022,-26,-26,0,-26,1,-0.0201854911
1330,1.331000,2022,-26,-26,0,-26,1,-0.0199539158
1331,1.332000,2022,-26,-26,0,-26,1,-0.0199998599
1332,1.333000,2022,-26,-26,0,-26,1,-0.0199738238
1333,1.334000,2025,-23,-23,0,-23,1,-0.0173524301
1334,1.335000,2026,-22,-21,1,-21,0,-0.0158268269
1335,1.336000,2028,-20,-20,0,-20,1,-0.0156533644
1336,1.337000,2028,-20,-19,1,-19,0,-0.0143440394
1337,1.338000,2029,-19,-18,1,-18,0,-0.0140262833
1338,1.339000,2030,-18,-18,0,-18,1,-0.0136511428
1339,1.340000,2032,-16,-15,1,-15,0,-0.0110554928
1340,1.341000,2034,-14,-13,1,-13,0,-0.0100691896
1341,1.342000,2035,-13,-12,1,-12,0,-0.00925832335
1342,1.343000,2035,-13,-11,2,-11,0,-0.00826246105
1343,1.344000,2035,-13,-10,3,-10,0,-0.0074496395
1344,1.345000,2038,-10,-9,1,-9,0,-0.00625684904
1345,1.346000,2039,-9,-7,2,-7,0,-0.00515977759
1346,1.347000,2041,-7,-6,1,-6,0,-0.00437377393
1347,1.348000,2042,-6,-6,0,-6,1,-0.00430779997
1348,1.349000,2042,-6,-6,0,-6,1,-0.00422380213
1349,1.350000,2042,-6,-6,0,-6,1,-0.00417581201
1350,1.351000,2044,-4,-3,1,-3,0,-0.00143374677
1351,1.352000,2046,-2,-2,0,-2,1,-0.000707978965
1352,1.353000,2046,-2,-1,1,-1,0,-0.000360411563
1353,1.354000,2048,0,0,0,0,1,0.000594601675
1354,1.355000,2048,0,0,0,0,1,0.000553363585
1355,1.356000,2047,-1,0,1,0,0,0.000914865173
1356,1.357000,2049,1,1,0,1,1,0.00152045814
1357,1.358000,2049,1,1,0,1,1,0.00181473384
1358,1.359000,2049,1,1,0,1,1,0.00171813997
1359,1.360000,2049,1,1,0,1,1,0.00193665992
1360,1.361000,2049,1,2,1,2,0,0.0024937191
1361,1.362000,2050,2,2,0,2,1,0.00210877298
1362,1.363000,2050,2,2,0,2,1,0.00231596595
1363,1.364000,2050,2,2,0,2,1,0.00273130438
1364,1.365000,2050,2,3,1,3,0,0.00305061694
1365,1.366000,2050,2,3,1,3,0,0.00314674177
1366,1.367000,2051,3,3,0,3,1,0.00347556057
1367,1.368000,2051,3,4,1,4,0,0.00393359922
1368,1.369000,2052,4,4,0,4,1,0.00363349891
1369,1.370000,2051,3,4,1,4,0,0.00384005159
1370,1.371000,2052,4,4,0,4,1,0.00385285309
1371,1.372000,2052,4,3,-1,3,0,0.003508528
1372,1.373000,2051,3,4,1,4,0,0.00418401044
1373,1.374000,2052,4,5,1,5,0,0.00458022859
1374,1.375000,2052,4,5,1,5,0,0.00484729512
1375,1.376000,2053,5,5,0,5,1,0.00522257993
1376,1.377000,2053,5,6,1,6,0,0.00574851641
1377,1.378000,2055,7,6,-1,6,0,0.00569642661
1378,1.379000,2053,5,5,0,5,1,0.00446400372
1379,1.380000,2052,4,5,1,5,0,0.00447759219
1380,1.381000,2052,4,5,1,5,0,0.00481258892
1381,1.382000,2053,5,5,0,5,1,0.00507559627
1382,1.383000,2053,5,5,0,5,1,0.00510911224
1383,1.384000,2053,5,6,1,6,0,0.0053221453
1384,1.385000,2054,6,5,-1,5,0,0.00513676181
1385,1.386000,2053,5,5,0,5,1,0.00457933685
1386,1.387000,2053,5,5,0,5,1,0.00494990917
1387,1.388000,2053,5,5,0,5,1,0.00472215516
1388,1.389000,2053,5,4,-1,4,0,0.00428343518
1389,1.390000,2053,5,4,-1,4,0,0.00393958855
1390,1.391000,2052,4,4,0,4,1,0.00381877297
1391,1.392000,2052,4,5,1,5,0,0.00444250414
1392,1.393000,2053,5,6,1,6,0,0.00565580977
1393,1.394000,2054,6,7,1,7,0,0.00644451287
1394,1.395000,2054,6,5,-1,5,0,0.00512764929
1395,1.396000,2052,4,4,0,4,1,0.00413455022
1396,1.397000,2052,4,4,0,4,1,0.0042096558
1397,1.398000,2052,4,3,-1,3,0,0.00355304684
1398,1.399000,2051,3,3,0,3,1,0.00327963242
1399,1.400000,2051,3,3,0,3,1,0.00315064378
1400,1.401000,2053,5,6,1,6,0,0.00572772417
1401,1.402000,2055,7,7,0,7,1,0.00625054119
1402,1.403000,2054,6,6,0,6,1,0.00567381131
1403,1.404000,2054,6,5,-1,5,0,0.00448333519
1404,1.405000,2054,6,3,-3,3,0,0.00361828203
1405,1.406000,2051,3,4,1,4,0,0.00365708838
1406,1.407000,2051,3,4,1,4,0,0.00412230799
1407,1.408000,2051,3,4,1,4,0,0.00433675107
1408,1.409000,2051,3,5,2,5,0,0.00462412694
1409,1.410000,2051,3,5,2,5,0,0.00506884418
1410,1.411000,2054,6,6,0,6,1,0.00564773148
1411,1.412000,2052,4,4,0,4,1,0.00415832596
1412,1.413000,2052,4,4,0,4,1,0.00387566932
1413,1.414000,2052,4,4,0,4,1,0.00407187268
1414,1.415000,2052,4,4,0,4,1,0.00386900129
1415,1.416000,2052,4,4,0,4,1,0.00384174823
1416,1.417000,2052,4,4,0,4,1,0.0044157845
1417,1.418000,2053,5,6,1,6,0,0.00531161297
1418,1.419000,2054,6,5,-1,5,0,0.00512372423
1419,1.420000,2053,5,5,0,5,1,0.00490234513
1420,1.421000,2053,5,5,0,5,1,0.00450204965
1421,1.422000,2053,5,4,-1,4,0,0.00395592581
1422,1.423000,2051,3,2,-1,2,0,0.00254379259
1423,1.424000,2050,2,1,-1,1,0,0.00184514339
1424,1.425000,2049,1,1,0,1,1,0.00179134449
1425,1.426000,2051,3,3,0,3,1,0.00324252062
1426,1.427000,2051,3,4,1,4,0,0.00415864214
1427,1.428000,2053,5,5,0,5,1,0.00451187789
1428,1.429000,2052,4,4,0,4,1,0.00415241299
1429,1.430000,2052,4,4,0,4,1,0.00433827564
1430,1.431000,2052,4,5,1,5,0,0.00461565051
1431,1.432000,2052,4,5,1,5,0,0.00478808396
1432,1.433000,2053,5,5,0,5,1,0.0047797719
1433,1.434000,2053,5,5,0,5,1,0.00502785668
1434,1.435000,2053,5,5,0,5,1,0.00495412154
1435,1.436000,2053,5,5,0,5,1,0.00456810044
1436,1.437000,2053,5,6,1,6,0,0.00567661412
1437,1.438000,2054,6,6,0,6,1,0.00588326016
1438,1.439000,2054,6,6,0,6,1,0.00577591453
1439,1.440000,2054,6,7,1,7,0,0.00610083807
1440,1.441000,2054,6,7,1,7,0,0.00622008927
1441,1.442000,2054,6,6,0,6,1,0.00567807676
1442,1.443000,2053,5,5,0,5,1,0.0047442764
1443,1.444000,2053,5,5,0,5,1,0.00482812244
1444,1.445000,2053,5,5,0,5,1,0.00489343237
1445,1.446000,2053,5,5,0,5,1,0.00510626985
1446,1.447000,2053,5,6,1,6,0,0.00545716798
1447,1.448000,2054,6,5,-1,5,0,0.00471990881
1448,1.449000,2053,5,4,-1,4,0,0.00425743405
1449,1.450000,2052,4,4,0,4,1,0.00394632854
1450,1.451000,2052,4,4,0,4,1,0.00412725518
1451,1.452000,2052,4,4,0,4,1,0.00381810893
1452,1.453000,2051,3,4,1,4,0,0.00378773687
1453,1.454000,2053,5,5,0,5,1,0.00460437033
1454,1.455000,2053,5,5,0,5,1,0.00450087106
1455,1.456000,2051,3,3,0,3,1,0.00326381996
1456,1.457000,2050,2,1,-1,1,0,0.00191819365
1457,1.458000,2049,1,1,0,1,1,0.00159004959
1458,1.459000,2049,1,1,0,1,1,0.0017687463
1459,1.460000,2050,2,2,0,2,1,0.00220526685
1460,1.461000,2050,2,2,0,2,1,0.0027479101
1461,1.462000,2050,2,3,1,3,0,0.00328606274
1462,1.463000,2050,2,4,2,4,0,0.00373504986
1463,1.464000,2052,4,4,0,4,1,0.00376542727
1464,1.465000,2051,3,2,-1,2,0,0.00230453862
1465,1.466000,2050,2,1,-1,1,0,0.00174015015
1466,1.467000,2049,1,2,1,2,0,0.00212893728
1467,1.468000,2051,3,3,0,3,1,0.00303975586
1468,1.469000,2051,3,3,0,3,1,0.00299208285
1469,1.470000,2051,3,2,-1,2,0,0.00219244859
1470,1.471000,2049,1,1,0,1,1,0.00139873836
1471,1.472000,2049,1,0,-1,0,0,0.000912598742
1472,1.473000,2048,0,0,0,0,1,0.00115047686
1473,1.474000,2048,0,1,1,1,0,0.00135229237
1474,1.475000,2048,0,1,1,1,0,0.00154302176
1475,1.476000,2048,0,0,0,0,1,0.000675202988
1476,1.477000,2048,0,0,0,0,1,0.000628189475
1477,1.478000,2048,0,0,0,0,1,0.000586574955
1478,1.479000,2047,-1,-1,0,-1,1,2.46943709e-05
1479,1.480000,2047,-1,-1,0,-1,1,6.40734797e-05
1480,1.481000,2047,-1,-1,0,-1,1,-0.000100624697
1481,1.482000,2047,-1,-2,-1,-2,0,-0.000429320498
1482,1.483000,2047,-1,-2,-1,-2,0,-0.000652237679
1483,1.484000,2046,-2,-2,0,-2,1,-0.000497780915
1484,1.485000,2046,-2,-2,0,-2,1,-0.000606568588
1485,1.486000,2046,-2,-2,0,-2,1,-0.000993019901
1486,1.487000,2046,-2,-3,-1,-3,0,-0.00145964511
1487,1.488000,2046,-2,-3,-1,-3,0,-0.00188850972
1488,1.489000,2044,-4,-4,0,-4,1,-0.00211507129
1489,1.490000,2044,-4,-3,1,-3,0,-0.00175016304
1490,1.491000,2044,-4,-3,1,-3,0,-0.001577307
1491,1.492000,2045,-3,-2,1,-2,0,-0.00113159325
1492,1.493000,2046,-2,-2,0,-2,1,-0.000417444273
1493,1.494000,2046,-2,-1,1,-1,0,7.88750258e-05
1494,1.495000,2046,-2,-2,0,-2,1,-0.00107768388
1495,1.496000,2045,-3,-3,0,-3,1,-0.00196944899
1496,1.497000,2044,-4,-3,1,-3,0,-0.00200136495
1497,1.498000,2045,-3,-4,-1,-4,0,-0.00230970001
1498,1.499000,2045,-3,-4,-1,-4,0,-0.00243150978
1499,1.500000,2045,-3,-4,-1,-4,0,-0.0025199072
1500,1.501000,2044,-4,-4,0,-4,1,-0.0021531363
1501,1.502000,2044,-4,-4,0,-4,1,-0.00229426334
1502,1.503000,2044,-4,-4,0,-4,1,-0.00234923582
1503,1.504000,2044,-4,-3,1,-3,0,-0.00189015141
1504,1.505000,2045,-3,-4,-1,-4,0,-0.0020641475
1505,1.506000,2044,-4,-4,0,-4,1,-0.00206033909
1506,1.507000,2044,-4,-3,1,-3,0,-0.00190037698
1507,1.508000,2044,-4,-3,1,-3,0,-0.00183210103
1508,1.509000,2044,-4,-3,1,-3,0,-0.00166009692
1509,1.510000,2044,-4,-3,1,-3,0,-0.00133806514
1510,1.511000,2045,-3,-2,1,-2,0,-0.000890429597
1511,1.512000,2045,-3,-3,0,-3,1,-0.00197386998
1512,1.513000,2044,-4,-4,0,-4,1,-0.00213733595
1513,1.514000,2045,-3,-3,0,-3,1,-0.00186542002
1514,1.515000,2045,-3,-3,0,-3,1,-0.00156312296
1515,1.516000,2045,-3,-3,0,-3,1,-0.00140381104
1516,1.517000,2045,-3,-3,0,-3,1,-0.0014485938
1517,1.518000,2045,-3,-3,0,-3,1,-0.00169526436
1518,1.519000,2045,-3,-4,-1,-4,0,-0.00210229587
1519,1.520000,2045,-3,-2,1,-2,0,-0.000621534826
1520,1.521000,2047,-1,0,1,0,0,0.000456660957
1521,1.522000,2047,-1,0,1,0,0,0.000437470619
1522,1.523000,2046,-2,-2,0,-2,1,-0.000833686558
1523,1.524000,2045,-3,-3,0,-3,1,-0.00154647033
1524,1.525000,2045,-3,-3,0,-3,1,-0.00166910235
1525,1.526000,2045,-3,-3,0,-3,1,-0.00200087251
1526,1.527000,2045,-3,-3,0,-3,1,-0.00174073072
1527,1.528000,2045,-3,-3,0,-3,1,-0.00138711825
1528,1.529000,2045,-3,-3,0,-3,1,-0.00127501157
1529,1.530000,2045,-3,-2,1,-2,0,-0.000903619046
1530,1.531000,2046,-2,-3,-1,-3,0,-0.00149707031
1531,1.532000,2044,-4,-4,0,-4,1,-0.00246282713
1532,1.533000,2044,-4,-5,-1,-5,0,-0.00283476338
1533,1.534000,2044,-4,-3,1,-3,0,-0.00134615158
1534,1.535000,2046,-2,-2,0,-2,1,-0.000601327047
1535,1.536000,2046,-2,-2,0,-2,1,-0.000801534392
1536,1.537000,2046,-2,-2,0,-2,1,-0.0008039354
1537,1.538000,2046,-2,-2,0,-2,1,-0.00115171273
1538,1.539000,2046,-2,-3,-1,-3,0,-0.00154723867
1539,1.540000,2046,-2,-3,-1,-3,0,-0.0017903907
1540,1.541000,2045,-3,-3,0,-3,1,-0.00180362747
1541,1.542000,2045,-3,-3,0,-3,1,-0.00182436081
1542,1.543000,2045,-3,-3,0,-3,1,-0.00182685733
1543,1.544000,2045,-3,-3,0,-3,1,-0.00140372966
1544,1.545000,2045,-3,-4,-1,-4,0,-0.00241763308
1545,1.546000,2044,-4,-5,-1,-5,0,-0.00313756173
1546,1.547000,2043,-5,-5,0,-5,1,-0.00305243325
1547,1.548000,2043,-5,-5,0,-5,1,-0.00333274947
1548,1.549000,2043,-5,-5,0,-5,1,-0.00352116185
1549,1.550000,2043,-5,-6,-1,-6,0,-0.00375768519
1550,1.551000,2043,-5,-5,0,-5,1,-0.00359525206
1551,1.552000,2043,-5,-6,-1,-6,0,-0.00396502018
1552,1.553000,2041,-7,-6,1,-6,0,-0.00441078143
1553,1.554000,2041,-7,-7,0,-7,1,-0.00460541947
1554,1.555000,2041,-7,-7,0,-7,1,-0.00504521048
1555,1.556000,2040,-8,-7,1,-7,0,-0.00480870344
1556,1.557000,2041,-7,-6,1,-6,0,-0.00424165418
1557,1.558000,2041,-7,-6,1,-6,0,-0.00397072081
1558,1.559000,2042,-6,-6,0,-6,1,-0.00409922563
1559,1.560000,2042,-6,-6,0,-6,1,-0.00392480288
1560,1.561000,2043,-5,-5,0,-5,1,-0.00341901695
1561,1.562000,2043,-5,-4,1,-4,0,-0.00278837327
1562,1.563000,2043,-5,-4,1,-4,0,-0.00217095017
1563,1.564000,2043,-5,-3,2,-3,0,-0.00166563445
1564,1.565000,2045,-3,-3,0,-3,1,-0.00133830926
1565,1.566000,2045,-3,-3,0,-3,1,-0.00122184819
1566,1.567000,2045,-3,-3,0,-3,1,-0.00131659862
1567,1.568000,2045,-3,-3,0,-3,1,-0.00159368466
1568,1.569000,2045,-3,-3,0,-3,1,-0.00200142083
1569,1.570000,2045,-3,-3,0,-3,1,-0.00128418126
1570,1.571000,2046,-2,-2,0,-2,1,-0.000791417784
1571,1.572000,2046,-2,-2,0,-2,1,-0.000919785874
1572,1.573000,2046,-2,-2,0,-2,1,-0.00115764025
1573,1.574000,2046,-2,-3,-1,-3,0,-0.00129007152
1574,1.575000,2045,-3,-3,0,-3,1,-0.00123886019
1575,1.576000,2045,-3,-3,0,-3,1,-0.00156706432
1576,1.577000,2045,-3,-3,0,-3,1,-0.00137220952
1577,1.578000,2046,-2,-3,-1,-3,0,-0.00127517595
1578,1.579000,2045,-3,-3,0,-3,1,-0.00171494368
1579,1.580000,2045,-3,-3,0,-3,1,-0.00154681178
1580,1.581000,2045,-3,-3,0,-3,1,-0.00157867174
1581,1.582000,2045,-3,-3,0,-3,1,-0.00178237737
1582,1.583000,2045,-3,-3,0,-3,1,-0.00190166605
1583,1.584000,2045,-3,-4,-1,-4,0,-0.00212305388
1584,1.585000,2045,-3,-4,-1,-4,0,-0.00248476979
1585,1.586000,2044,-4,-5,-1,-5,0,-0.00295620738
1586,1.587000,2044,-4,-4,0,-4,1,-0.00241000508
1587,1.588000,2044,-4,-4,0,-4,1,-0.00245616026
1588,1.589000,2044,-4,-4,0,-4,1,-0.00257142237
1589,1.590000,2045,-3,-3,0,-3,1,-0.00177877326
1590,1.591000,2045,-3,-3,0,-3,1,-0.00155223068
1591,1.592000,2044,-4,-4,0,-4,1,-0.00212198915
1592,1.593000,2043,-5,-5,0,-5,1,-0.0031198808
1593,1.594000,2043,-5,-5,0,-5,1,-0.0030901006
1594,1.595000,2043,-5,-4,1,-4,0,-0.00265003555
1595,1.596000,2044,-4,-4,0,-4,1,-0.00209809723
1596,1.597000,2044,-4,-3,1,-3,0,-0.0015978287
1597,1.598000,2045,-3,-4,-1,-4,0,-0.00222867355
1598,1.599000,2044,-4,-4,0,-4,1,-0.00257768086
1599,1.600000,2044,-4,-4,0,-4,1,-0.00275863032
1600,1.601000,2044,-4,-4,0,-4,1,-0.0024381259
1601,1.602000,2044,-4,-4,0,-4,1,-0.00261170766
1602,1.603000,2043,-5,-4,1,-4,0,-0.00269561308
1603,1.604000,2044,-4,-4,0,-4,1,-0.00226351339
1604,1.605000,2044,-4,-4,0,-4,1,-0.00246097939
1605,1.606000,2044,-4,-4,0,-4,1,-0.00216482417
1606,1.607000,2045,-3,-3,0,-3,1,-0.0016357617
1607,1.608000,2045,-3,-3,0,-3,1,-0.00145771808
1608,1.609000,2045,-3,-4,-1,-4,0,-0.00215326902
1609,1.610000,2044,-4,-4,0,-4,1,-0.00238928758
1610,1.611000,2044,-4,-4,0,-4,1,-0.00207325537
1611,1.612000,2045,-3,-3,0,-3,1,-0.00153813371
1612,1.613000,2045,-3,-2,1,-2,0,-0.000969231129
1613,1.614000,2045,-3,-2,1,-2,0,-0.000483360054
1614,1.615000,2047,-1,-1,0,-1,1,-0.000154413763
1615,1.616000,2047,-1,-1,0,-1,1,-2.0656551e-05
1616,1.617000,2047,-1,-1,0,-1,1,0.000400709425
1617,1.618000,2048,0,0,0,0,1,0.00100359798
1618,1.619000,2048,0,0,0,0,1,0.000883308472
1619,1.620000,2048,0,-1,-1,-1,0,9.08379807e-05
1620,1.621000,2048,0,-2,-2,-2,0,-0.00067984499
1621,1.622000,2048,0,-2,-2,-2,0,-0.00115304929
1622,1.623000,2045,-3,-2,1,-2,0,-0.000921227329
1623,1.624000,2045,-3,-2,1,-2,0,-0.00074476999
1624,1.625000,2045,-3,-2,1,-2,0,-0.000594287645
1625,1.626000,2046,-2,-2,0,-2,1,-0.000941155944
1626,1.627000,2046,-2,-2,0,-2,1,-0.000836878258
1627,1.628000,2046,-2,-2,0,-2,1,-0.000871322234
1628,1.629000,2046,-2,-3,-1,-3,0,-0.00145750132
1629,1.630000,2045,-3,-3,0,-3,1,-0.00142785918
1630,1.631000,2045,-3,-3,0,-3,1,-0.00126137782
1631,1.632000,2046,-2,-2,0,-2,1,-0.00115740439
1632,1.633000,2046,-2,-2,0,-2,1,-0.00118982769
1633,1.634000,2045,-3,-2,1,-2,0,-0.000921705505
1634,1.635000,2046,-2,-2,0,-2,1,-0.00093585148
1635,1.636000,2046,-2,-3,-1,-3,0,-0.00123174314
1636,1.637000,2046,-2,-2,0,-2,1,-0.000547721866
1637,1.638000,2046,-2,-2,0,-2,1,-0.000453583169
1638,1.639000,2046,-2,-1,1,-1,0,-0.000334041688
1639,1.640000,2047,-1,0,1,0,0,0.00112239923
1640,1.641000,2048,0,1,1,1,0,0.00162867876
1641,1.642000,2050,2,3,1,3,0,0.0028828939
1642,1.643000,2052,4,5,1,5,0,0.00488494756
1643,1.644000,2054,6,6,0,6,1,0.00579726603
1644,1.645000,2055,7,6,-1,6,0,0.00597685203
1645,1.646000,2055,7,7,0,7,1,0.00615197141
1646,1.647000,2055,7,7,0,7,1,0.00653336337
1647,1.648000,2056,8,8,0,8,1,0.00744163431
1648,1.649000,2056,8,9,1,9,0,0.00804467499
1649,1.650000,2057,9,9,0,9,1,0.00833325647
1650,1.651000,2058,10,11,1,11,0,0.00954442378
1651,1.652000,2059,11,11,0,11,1,0.00984954461
1652,1.653000,2059,11,11,0,11,1,0.0100667337
1653,1.654000,2060,12,12,0,12,1,0.0107136006
1654,1.655000,2060,12,12,0,12,1,0.0106649483
1655,1.656000,2060,12,13,1,13,0,0.0110422242
1656,1.657000,2061,13,13,0,13,1,0.0115807597
1657,1.658000,2061,13,14,1,14,0,0.0116981883
1658,1.659000,2061,13,14,1,14,0,0.0117753362
1659,1.660000,2061,13,14,1,14,0,0.011943927
1660,1.661000,2062,14,14,0,14,1,0.0122254286
1661,1.662000,2062,14,15,1,15,0,0.0125901029
1662,1.663000,2062,14,15,1,15,0,0.0129857501
1663,1.664000,2064,16,16,0,16,1,0.0135343876
1664,1.665000,2065,17,17,0,17,1,0.0148773901
1665,1.666000,2065,17,18,1,18,0,0.015381488
1666,1.667000,2066,18,19,1,19,0,0.0157356206
1667,1.668000,2067,19,19,0,19,1,0.0160610843
1668,1.669000,2067,19,19,0,19,1,0.0159741808
1669,1.670000,2067,19,19,0,19,1,0.0165200662
1670,1.671000,2068,20,20,0,20,1,0.0168756209
1671,1.672000,2068,20,20,0,20,1,0.016801374
1672,1.673000,2069,21,21,0,21,1,0.0181207564
1673,1.674000,2070,22,22,0,22,1,0.0187832341
1674,1.675000,2071,23,23,0,23,1,0.0189921502
1675,1.676000,2072,24,24,0,24,1,0.0202726033
1676,1.677000,2072,24,25,1,25,0,0.020876525
1677,1.678000,2072,24,24,0,24,1,0.0204036236
1678,1.679000,2071,23,22,-1,22,0,0.0183850899
1679,1.680000,2070,22,21,-1,21,0,0.0179993343
1680,1.681000,2069,21,21,0,21,1,0.0178556871
1681,1.682000,2069,21,21,0,21,1,0.0177332945
1682,1.683000,2069,21,21,0,21,1,0.0177681483
1683,1.684000,2070,22,22,0,22,1,0.0181526951
1684,1.685000,2070,22,22,0,22,1,0.0181968827
1685,1.686000,2070,22,21,-1,21,0,0.0178587604
1686,1.687000,2069,21,20,-1,20,0,0.0167946257
1687,1.688000,2068,20,19,-1,19,0,0.0159715675
1688,1.689000,2066,18,18,0,18,1,0.0155277206
1689,1.690000,2067,19,19,0,19,1,0.0161142685
1690,1.691000,2067,19,19,0,19,1,0.0161403958
1691,1.692000,2067,19,18,-1,18,0,0.0155896368
1692,1.693000,2065,17,17,0,17,1,0.0147711597
1693,1.694000,2065,17,17,0,17,1,0.0146851437
1694,1.695000,2065,17,17,0,17,1,0.0145339193
1695,1.696000,2065,17,17,0,17,1,0.0145894876
1696,1.697000,2065,17,17,0,17,1,0.0148852961
1697,1.698000,2063,15,15,0,15,1,0.0127255963
1698,1.699000,2062,14,13,-1,13,0,0.011650648
1699,1.700000,2062,14,13,-1,13,0,0.0113535365
1700,1.701000,2061,13,13,0,13,1,0.0111840582
1701,1.702000,2061,13,13,0,13,1,0.0109068044
1702,1.703000,2060,12,12,0,12,1,0.010809958
1703,1.704000,2061,13,13,0,13,1,0.0111847222
1704,1.705000,2061,13,12,-1,12,0,0.0108426409
1705,1.706000,2060,12,13,1,13,0,0.0112187592
1706,1.707000,2062,14,14,0,14,1,0.011836323
1707,1.708000,2062,14,14,0,14,1,0.0118102292
1708,1.709000,2063,15,16,1,16,0,0.0139623955
1709,1.710000,2066,18,18,0,18,1,0.0154697392
1710,1.711000,2066,18,19,1,19,0,0.0161564983
1711,1.712000,2067,19,20,1,20,0,0.0172279496
1712,1.713000,2067,19,21,2,21,0,0.0180516709
1713,1.714000,2070,22,22,0,22,1,0.0186020918
1714,1.715000,2070,22,22,0,22,1,0.0182407405
1715,1.716000,2070,22,22,0,22,1,0.0185241103
1716,1.717000,2069,21,20,-1,20,0,0.0172161162
1717,1.718000,2066,18,17,-1,17,0,0.0145306857
1718,1.719000,2064,16,16,0,16,1,0.0136938998
1719,1.720000,2064,16,15,-1,15,0,0.0129309446
1720,1.721000,2064,16,14,-2,14,0,0.0121993693
1721,1.722000,2064,16,13,-3,13,0,0.0115024075
1722,1.723000,2060,12,11,-1,11,0,0.00971372053
1723,1.724000,2058,10,9,-1,9,0,0.00831821561
1724,1.725000,2058,10,8,-2,8,0,0.00730080483
1725,1.726000,2055,7,6,-1,6,0,0.00593796978
1726,1.727000,2055,7,5,-2,5,0,0.00515472237
1727,1.728000,2052,4,4,0,4,1,0.00406984705
1728,1.729000,2051,3,2,-1,2,0,0.00206715614
1729,1.730000,2049,1,1,0,1,1,0.00160636113
1730,1.731000,2048,0,0,0,0,1,0.000855467282
1731,1.732000,2047,-1,-1,0,-1,1,0.000134072892
1732,1.733000,2047,-1,-1,0,-1,1,0.000249572418
1733,1.734000,2046,-2,-3,-1,-3,0,-0.00123029388
1734,1.735000,2045,-3,-4,-1,-4,0,-0.00214694627
1735,1.736000,2044,-4,-4,0,-4,1,-0.00242687203
1736,1.737000,2045,-3,-3,0,-3,1,-0.00158925354
1737,1.738000,2045,-3,-3,0,-3,1,-0.00151094887
1738,1.739000,2045,-3,-4,-1,-4,0,-0.00202852814
1739,1.740000,2045,-3,-5,-2,-5,0,-0.0032013189
1740,1.741000,2045,-3,-6,-3,-6,0,-0.00405277638
1741,1.742000,2045,-3,-7,-4,-7,0,-0.00468940893
1742,1.743000,2041,-7,-7,0,-7,1,-0.00511695445
1743,1.744000,2040,-8,-8,0,-8,1,-0.00532148825
1744,1.745000,2040,-8,-10,-2,-10,0,-0.00688833697
1745,1.746000,2037,-11,-11,0,-11,1,-0.0079472214
1746,1.747000,2037,-11,-11,0,-11,1,-0.00792882964
1747,1.748000,2036,-12,-12,0,-12,1,-0.00898755062
1748,1.749000,2036,-12,-12,0,-12,1,-0.00924702361
1749,1.750000,2036,-12,-12,0,-12,1,-0.00902303308
1750,1.751000,2037,-11,-10,1,-10,0,-0.00764569361
1751,1.752000,2038,-10,-10,0,-10,1,-0.00717998482
1752,1.753000,2038,-10,-9,1,-9,0,-0.00673027709
1753,1.754000,2040,-8,-8,0,-8,1,-0.0056731971
1754,1.755000,2040,-8,-8,0,-8,1,-0.00574969547
1755,1.756000,2040,-8,-9,-1,-9,0,-0.00652228203
1756,1.757000,2038,-10,-10,0,-10,1,-0.00740314787
1757,1.758000,2038,-10,-11,-1,-11,0,-0.00788348634
1758,1.759000,2037,-11,-12,-1,-12,0,-0.00850586686
1759,1.760000,2037,-11,-12,-1,-12,0,-0.00870949402
1760,1.761000,2036,-12,-12,0,-12,1,-0.00849586912
1761,1.762000,2036,-12,-12,0,-12,1,-0.0091311438
1762,1.763000,2036,-12,-12,0,-12,1,-0.00906167552
1763,1.764000,2036,-12,-12,0,-12,1,-0.00884113554
1764,1.765000,2035,-13,-13,0,-13,1,-0.00947142858
1765,1.766000,2035,-13,-13,0,-13,1,-0.00950373244
1766,1.767000,2035,-13,-13,0,-13,1,-0.00971008651
1767,1.768000,2035,-13,-14,-1,-14,0,-0.0102234324
1768,1.769000,2035,-13,-14,-1,-14,0,-0.0106170848
1769,1.770000,2034,-14,-14,0,-14,1,-0.0102668935
1770,1.771000,2034,-14,-14,0,-14,1,-0.0101355966
1771,1.772000,2034,-14,-14,0,-14,1,-0.0104848128
1772,1.773000,2034,-14,-14,0,-14,1,-0.0104492493
1773,1.774000,2034,-14,-14,0,-14,1,-0.0105743436
1774,1.775000,2034,-14,-14,0,-14,1,-0.0107155629
1775,1.776000,2034,-14,-14,0,-14,1,-0.0107080005
1776,1.777000,2034,-14,-14,0,-14,1,-0.0105049321
1777,1.778000,2034,-14,-14,0,-14,1,-0.010636121
1778,1.779000,2033,-15,-15,0,-15,1,-0.0115457205
1779,1.780000,2033,-15,-15,0,-15,1,-0.0114192842
1780,1.781000,2033,-15,-15,0,-15,1,-0.0112781525
1781,1.782000,2033,-15,-15,0,-15,1,-0.011204063
1782,1.783000,2033,-15,-15,0,-15,1,-0.0110112522
1783,1.784000,2033,-15,-14,1,-14,0,-0.0104914149
1784,1.785000,2034,-14,-14,0,-14,1,-0.0103306836
1785,1.786000,2034,-14,-14,0,-14,1,-0.0105702514
1786,1.787000,2034,-14,-14,0,-14,1,-0.0104870014
1787,1.788000,2034,-14,-14,0,-14,1,-0.0107921846
1788,1.789000,2033,-15,-15,0,-15,1,-0.010885899
1789,1.790000,2035,-13,-12,1,-12,0,-0.00918484293
1790,1.791000,2036,-12,-12,0,-12,1,-0.0087765744
1791,1.792000,2035,-13,-13,0,-13,1,-0.00941819139
1792,1.793000,2034,-14,-14,0,-14,1,-0.0105384635
1793,1.794000,2034,-14,-14,0,-14,1,-0.0105915377
1794,1.795000,2033,-15,-16,-1,-16,0,-0.0117441406
1795,1.796000,2032,-16,-16,0,-16,1,-0.0123942122
1796,1.797000,2032,-16,-16,0,-16,1,-0.0121011222
1797,1.798000,2031,-17,-17,0,-17,1,-0.0130740106
1798,1.799000,2030,-18,-18,0,-18,1,-0.0134436591
1799,1.800000,2030,-18,-18,0,-18,1,-0.0134989265
1800,1.801000,2030,-18,-19,-1,-19,0,-0.0142268576
1801,1.802000,2030,-18,-19,-1,-19,0,-0.0148124406
1802,1.803000,2027,-21,-21,0,-21,1,-0.0163157359
1803,1.804000,2023,-25,-25,0,-25,1,-0.0194168184
1804,1.805000,2023,-25,-27,-2,-27,0,-0.0209092423
1805,1.806000,2018,-30,-30,0,-30,1,-0.0236202348
1806,1.807000,2016,-32,-34,-2,-34,0,-0.0264401566
1807,1.808000,2013,-35,-35,0,-35,1,-0.0274478085
1808,1.809000,2010,-38,-38,0,-38,1,-0.0299604237
1809,1.810000,2009,-39,-40,-1,-40,0,-0.0313658193
1810,1.811000,2008,-40,-40,0,-40,1,-0.0316142365
1811,1.812000,2005,-43,-44,-1,-44,0,-0.0346863866
1812,1.813000,2004,-44,-46,-2,-46,0,-0.0358613767
1813,1.814000,2002,-46,-47,-1,-47,0,-0.0367306136
1814,1.815000,1998,-50,-51,-1,-51,0,-0.0404617637
1815,1.816000,1996,-52,-53,-1,-53,0,-0.0417454802
1816,1.817000,1995,-53,-54,-1,-54,0,-0.043012064
1817,1.818000,1992,-56,-56,0,-56,1,-0.0446976721
1818,1.819000,1992,-56,-58,-2,-58,0,-0.0455696471
1819,1.820000,1992,-56,-54,2,-54,0,-0.0426496454
1820,1.821000,1997,-51,-51,0,-51,1,-0.0403647982
1821,1.822000,1997,-51,-51,0,-51,1,-0.040102344
1822,1.823000,2010,-38,-37,1,-37,0,-0.0286101606
1823,1.824000,2016,-32,-29,3,-29,0,-0.0228152201
1824,1.825000,2020,-28,-27,1,-27,0,-0.0212328769
1825,1.826000,2044,-4,-5,-1,-5,0,-0.00306776981
1826,1.827000,2050,2,4,2,4,0,0.00378250773
1827,1.828000,2058,10,14,4,14,0,0.0119230729
1828,1.829000,2079,31,35,4,35,0,0.0288292691
1829,1.830000,2087,39,43,4,43,0,0.0355148017
1830,1.831000,2105,57,64,7,64,0,0.0519966669
1831,1.832000,2131,83,87,4,87,0,0.0706985593
1832,1.833000,2138,90,96,6,96,0,0.0782114342
1833,1.834000,2176,128,133,5,133,0,0.107896134
1834,1.835000,2197,149,157,8,157,0,0.127159253
1835,1.836000,2212,164,165,1,165,0,0.134173959
1836,1.837000,2249,201,206,5,206,0,0.167020008
1837,1.838000,2268,220,224,4,224,0,0.18171522
1838,1.839000,2283,235,235,0,235,1,0.190547511
1839,1.840000,2310,262,264,2,264,0,0.213727117
1840,1.841000,2318,270,275,5,275,0,0.222558275
1841,1.842000,2332,284,285,1,285,0,0.230415195
1842,1.843000,2343,295,297,2,297,0,0.239876568
1843,1.844000,2350,302,303,1,303,0,0.244881302
1844,1.845000,2347,299,296,-3,296,0,0.239677981
1845,1.846000,2339,291,291,0,291,1,0.235537633
1846,1.847000,2339,291,292,1,292,0,0.235907704
1847,1.848000,2304,256,253,-3,253,0,0.204728365
1848,1.849000,2284,236,233,-3,233,0,0.188686118
1849,1.850000,2278,230,227,-3,227,0,0.183777273
1850,1.851000,2209,161,158,-3,158,0,0.127922118
1851,1.852000,2185,137,131,-6,131,0,0.106164701
1852,1.853000,2159,111,104,-7,104,0,0.0844581425
1853,1.854000,2104,56,53,-3,53,0,0.043273408
1854,1.855000,2080,32,31,-1,31,0,0.025776444
1855,1.856000,2060,12,5,-7,5,0,0.00449933251
1856,1.857000,2036,-12,-23,-11,-23,0,-0.0176518075
1857,1.858000,2021,-27,-38,-11,-38,0,-0.0300811771
1858,1.859000,2001,-47,-50,-3,-50,0,-0.0394537821
1859,1.860000,1993,-55,-59,-4,-59,0,-0.0469970778
1860,1.861000,1993,-55,-67,-12,-67,0,-0.0528791286
1861,1.862000,1984,-64,-64,0,-64,1,-0.0505731404
1862,1.863000,1984,-64,-63,1,-63,0,-0.0499406718
1863,1.864000,1986,-62,-61,1,-61,0,-0.0487061441
1864,1.865000,1986,-62,-55,7,-55,0,-0.0435534604
1865,1.866000,1998,-50,-50,0,-50,1,-0.039103739
1866,1.867000,2005,-43,-42,1,-42,0,-0.0333460979
1867,1.868000,2009,-39,-34,5,-34,0,-0.026586486
1868,1.869000,2015,-33,-27,6,-27,0,-0.0211830325
1869,1.870000,2026,-22,-21,1,-21,0,-0.0165110081
1870,1.871000,2029,-19,-17,2,-17,0,-0.0131992474
1871,1.872000,2029,-19,-15,4,-15,0,-0.0115745086
1872,1.873000,2033,-15,-16,-1,-16,0,-0.0120176179
1873,1.874000,2031,-17,-18,-1,-18,0,-0.0136034014
1874,1.875000,2031,-17,-21,-4,-21,0,-0.0160636511
1875,1.876000,2027,-21,-24,-3,-24,0,-0.0185359474
1876,1.877000,2027,-21,-28,-7,-28,0,-0.0215398781
1877,1.878000,2017,-31,-32,-1,-32,0,-0.0245911125
1878,1.879000,2014,-34,-35,-1,-35,0,-0.0273348093
1879,1.880000,2012,-36,-37,-1,-37,0,-0.0288334917
1880,1.881000,2010,-38,-38,0,-38,1,-0.0297797639
1881,1.882000,2010,-38,-38,0,-38,1,-0.0297994185
1882,1.883000,2012,-36,-36,0,-36,1,-0.0284163374
1883,1.884000,2015,-33,-32,1,-32,0,-0.0253720917
1884,1.885000,2019,-29,-29,0,-29,1,-0.0223598517
1885,1.886000,2019,-29,-26,3,-26,0,-0.0198671948
1886,1.887000,2023,-25,-25,0,-25,1,-0.0189990569
1887,1.888000,2023,-25,-24,1,-24,0,-0.0181890372
1888,1.889000,2025,-23,-23,0,-23,1,-0.0175203476
1889,1.890000,2027,-21,-21,0,-21,1,-0.0161783658
1890,1.891000,2027,-21,-22,-1,-22,0,-0.0165497288
1891,1.892000,2025,-23,-23,0,-23,1,-0.0180406962
1892,1.893000,2025,-23,-26,-3,-26,0,-0.0200910661
1893,1.894000,2021,-27,-28,-1,-28,0,-0.0218702443
1894,1.895000,2018,-30,-30,0,-30,1,-0.0232996009
1895,1.896000,2018,-30,-31,-1,-31,0,-0.0242613833
1896,1.897000,2018,-30,-32,-2,-32,0,-0.0246737637
1897,1.898000,2016,-32,-33,-1,-33,0,-0.0259983428
1898,1.899000,2015,-33,-33,0,-33,1,-0.0260994509
1899,1.900000,2015,-33,-32,1,-32,0,-0.0252502654
1900,1.901000,2016,-32,-30,2,-30,0,-0.0234284252
1901,1.902000,2018,-30,-28,2,-28,0,-0.021906754
1902,1.903000,2021,-27,-26,1,-26,0,-0.0205267761
1903,1.904000,2022,-26,-25,1,-25,0,-0.0192089435
1904,1.905000,2024,-24,-24,0,-24,1,-0.0186290946
1905,1.906000,2024,-24,-24,0,-24,1,-0.0185827632
1906,1.907000,2024,-24,-25,-1,-25,0,-0.0189428944
1907,1.908000,2024,-24,-25,-1,-25,0,-0.019589154
1908,1.909000,2021,-27,-28,-1,-28,0,-0.0217329822
1909,1.910000,2020,-28,-30,-2,-30,0,-0.0234145299
1910,1.911000,2018,-30,-31,-1,-31,0,-0.0243722722
1911,1.912000,2017,-31,-31,0,-31,1,-0.0238617025
1912,1.913000,2017,-31,-30,1,-30,0,-0.023666786
1913,1.914000,2018,-30,-31,-1,-31,0,-0.0238183364
1914,1.915000,2016,-32,-32,0,-32,1,-0.0251563098
1915,1.916000,2016,-32,-32,0,-32,1,-0.0252425484
1916,1.917000,2016,-32,-31,1,-31,0,-0.024558438
1917,1.918000,2018,-30,-30,0,-30,1,-0.023511935
1918,1.919000,2018,-30,-29,1,-29,0,-0.0227655135
1919,1.920000,2020,-28,-28,0,-28,1,-0.0214446448
1920,1.921000,2021,-27,-26,1,-26,0,-0.0204826687
1921,1.922000,2021,-27,-26,1,-26,0,-0.0201828834
1922,1.923000,2022,-26,-26,0,-26,1,-0.0202206634
1923,1.924000,2022,-26,-26,0,-26,1,-0.020437682
1924,1.925000,2022,-26,-27,-1,-27,0,-0.0207362175
1925,1.926000,2019,-29,-29,0,-29,1,-0.0227507018
1926,1.927000,2019,-29,-30,-1,-30,0,-0.0236073695
1927,1.928000,2018,-30,-31,-1,-31,0,-0.0239181332
1928,1.929000,2018,-30,-31,-1,-31,0,-0.0239778832
1929,1.930000,2017,-31,-31,0,-31,1,-0.0239065941
1930,1.931000,2017,-31,-32,-1,-32,0,-0.0246904325
1931,1.932000,2016,-32,-33,-1,-33,0,-0.0256405044
1932,1.933000,2015,-33,-33,0,-33,1,-0.025771834
1933,1.934000,2016,-32,-31,1,-31,0,-0.0242943596
1934,1.935000,2018,-30,-30,0,-30,1,-0.0232639909
1935,1.936000,2019,-29,-29,0,-29,1,-0.0229128283
1936,1.937000,2020,-28,-28,0,-28,1,-0.0217856057
1937,1.938000,2020,-28,-28,0,-28,1,-0.02139364
1938,1.939000,2020,-28,-28,0,-28,1,-0.0213753637
1939,1.940000,2020,-28,-28,0,-28,1,-0.0214495175
1940,1.941000,2020,-28,-28,0,-28,1,-0.0214942601
1941,1.942000,2020,-28,-27,1,-27,0,-0.0212153867
1942,1.943000,2020,-28,-27,1,-27,0,-0.0206649583
1943,1.944000,2021,-27,-26,1,-26,0,-0.0203281026
1944,1.945000,2021,-27,-28,-1,-28,0,-0.0216215923
1945,1.946000,2020,-28,-29,-1,-29,0,-0.0226069484
1946,1.947000,2019,-29,-29,0,-29,1,-0.022673009
1947,1.948000,2019,-29,-29,0,-29,1,-0.0229481217
1948,1.949000,2019,-29,-30,-1,-30,0,-0.0229707193
1949,1.950000,2019,-29,-29,0,-29,1,-0.0229039956
1950,1.951000,2019,-29,-28,1,-28,0,-0.0217738952
1951,1.952000,2020,-28,-28,0,-28,1,-0.0215030722
1952,1.953000,2020,-28,-28,0,-28,1,-0.0214722417
1953,1.954000,2020,-28,-27,1,-27,0,-0.0212970488
1954,1.955000,2020,-28,-28,0,-28,1,-0.021469038
1955,1.956000,2020,-28,-28,0,-28,1,-0.0213830601
1956,1.957000,2020,-28,-27,1,-27,0,-0.0211446881
1957,1.958000,2020,-28,-27,1,-27,0,-0.0210332721
1958,1.959000,2020,-28,-27,1,-27,0,-0.0208600182
1959,1.960000,2020,-28,-27,1,-27,0,-0.0205721874
1960,1.961000,2020,-28,-26,2,-26,0,-0.0201807488
1961,1.962000,2021,-27,-27,0,-27,1,-0.0213259049
1962,1.963000,2020,-28,-28,0,-28,1,-0.0215401873
1963,1.964000,2021,-27,-27,0,-27,1,-0.0212044008
1964,1.965000,2022,-26,-26,0,-26,1,-0.0203673076
1965,1.966000,2022,-26,-26,0,-26,1,-0.0199955329
1966,1.967000,2023,-25,-25,0,-25,1,-0.0189424008
1967,1.968000,2025,-23,-23,0,-23,1,-0.0173778366
1968,1.969000,2026,-22,-22,0,-22,1,-0.0171354916
1969,1.970000,2026,-22,-22,0,-22,1,-0.0169796087
1970,1.971000,2026,-22,-22,0,-22,1,-0.0170093216
1971,1.972000,2026,-22,-22,0,-22,1,-0.017199479
1972,1.973000,2025,-23,-23,0,-23,1,-0.0178034436
1973,1.974000,2025,-23,-23,0,-23,1,-0.0179986265
1974,1.975000,2025,-23,-23,0,-23,1,-0.0178206638
1975,1.976000,2025,-23,-23,0,-23,1,-0.0174263995
1976,1.977000,2025,-23,-22,1,-22,0,-0.0169218611
1977,1.978000,2027,-21,-21,0,-21,1,-0.0162225235
1978,1.979000,2028,-20,-20,0,-20,1,-0.0152709456
1979,1.980000,2029,-19,-19,0,-19,1,-0.014752659
1980,1.981000,2028,-20,-21,-1,-21,0,-0.0157328118
1981,1.982000,2026,-22,-22,0,-22,1,-0.017177308
1982,1.983000,2025,-23,-23,0,-23,1,-0.0176968556
1983,1.984000,2026,-22,-22,0,-22,1,-0.0170641467
1984,1.985000,2026,-22,-22,0,-22,1,-0.0167360716
1985,1.986000,2026,-22,-22,0,-22,1,-0.0168678146
1986,1.987000,2027,-21,-20,1,-20,0,-0.0155698406
1987,1.988000,2028,-20,-20,0,-20,1,-0.0152127445
1988,1.989000,2028,-20,-20,0,-20,1,-0.0154723888
1989,1.990000,2027,-21,-22,-1,-22,0,-0.0166415982
1990,1.991000,2026,-22,-22,0,-22,1,-0.0169642046
1991,1.992000,2026,-22,-22,0,-22,1,-0.0168561023
1992,1.993000,2026,-22,-21,1,-21,0,-0.0165142082
1993,1.994000,2026,-22,-21,1,-21,0,-0.0160565935
1994,1.995000,2026,-22,-22,0,-22,1,-0.0167609211
1995,1.996000,2026,-22,-22,0,-22,1,-0.0172785763
1996,1.997000,2026,-22,-22,0,-22,1,-0.017202897
1997,1.998000,2025,-23,-23,0,-23,1,-0.0180150289
1998,1.999000,2025,-23,-24,-1,-24,0,-0.0184516814
1999,2.000000,2024,-24,-24,0,-24,1,-0.0186785236
2000,2.001000,2024,-24,-25,-1,-25,0,-0.0189463552
2001,2.002000,2024,-24,-25,-1,-25,0,-0.0193145256
2002,2.003000,2023,-25,-25,0,-25,1,-0.0194171499
2003,2.004000,2023,-25,-24,1,-24,0,-0.0189354233
2004,2.005000,2023,-25,-25,0,-25,1,-0.0190602988
2005,2.006000,2023,-25,-25,0,-25,1,-0.0193091333
2006,2.007000,2023,-25,-25,0,-25,1,-0.0194705818
2007,2.008000,2023,-25,-25,0,-25,1,-0.019458985
2008,2.009000,2023,-25,-24,1,-24,0,-0.0188095793
2009,2.010000,2024,-24,-24,0,-24,1,-0.0181554835
2010,2.011000,2024,-24,-23,1,-23,0,-0.0175935309
2011,2.012000,2024,-24,-24,0,-24,1,-0.0186471604
2012,2.013000,2024,-24,-24,0,-24,1,-0.0188073181
2013,2.014000,2024,-24,-24,0,-24,1,-0.0185312126
2014,2.015000,2024,-24,-24,0,-24,1,-0.0182102583
2015,2.016000,2024,-24,-23,1,-23,0,-0.0180117376
2016,2.017000,2025,-23,-23,0,-23,1,-0.0177515037
2017,2.018000,2025,-23,-23,0,-23,1,-0.0174947213
2018,2.019000,2025,-23,-23,0,-23,1,-0.0176806115
2019,2.020000,2025,-23,-23,0,-23,1,-0.0176610649
2020,2.021000,2025,-23,-23,0,-23,1,-0.0177640859
2021,2.022000,2025,-23,-23,0,-23,1,-0.0180468708
2022,2.023000,2026,-22,-22,0,-22,1,-0.0168132
2023,2.024000,2027,-21,-21,0,-21,1,-0.0161557049
2024,2.025000,2027,-21,-21,0,-21,1,-0.0158849992
2025,2.026000,2027,-21,-20,1,-20,0,-0.0156223355
2026,2.027000,2027,-21,-20,1,-20,0,-0.0152484039
2027,2.028000,2029,-19,-20,-1,-20,0,-0.0151004232
2028,2.029000,2028,-20,-20,0,-20,1,-0.0154859088
2029,2.030000,2028,-20,-20,0,-20,1,-0.0152142094
2030,2.031000,2028,-20,-20,0,-20,1,-0.015706785
2031,2.032000,2027,-21,-21,0,-21,1,-0.0164666958
2032,2.033000,2027,-21,-22,-1,-22,0,-0.016586097
2033,2.034000,2027,-21,-20,1,-20,0,-0.0152883809
2034,2.035000,2029,-19,-19,0,-19,1,-0.0146027831
2035,2.036000,2029,-19,-19,0,-19,1,-0.0147091849
2036,2.037000,2029,-19,-19,0,-19,1,-0.0146195311
2037,2.038000,2029,-19,-20,-1,-20,0,-0.0149366986
2038,2.039000,2028,-20,-20,0,-20,1,-0.015197753
2039,2.040000,2029,-19,-19,0,-19,1,-0.0144997379
2040,2.041000,2029,-19,-19,0,-19,1,-0.014337373
2041,2.042000,2029,-19,-19,0,-19,1,-0.0144544486
2042,2.043000,2029,-19,-19,0,-19,1,-0.0146096079
2043,2.044000,2029,-19,-19,0,-19,1,-0.0142964814
2044,2.045000,2029,-19,-18,1,-18,0,-0.0137474248
2045,2.046000,2029,-19,-17,2,-17,0,-0.013111297
2046,2.047000,2029,-19,-17,2,-17,0,-0.0124995681
2047,2.048000,2032,-16,-16,0,-16,1,-0.0124897566
2048,2.049000,2032,-16,-16,0,-16,1,-0.012409444
2049,2.050000,2032,-16,-16,0,-16,1,-0.0123391133
2050,2.051000,2034,-14,-14,0,-14,1,-0.0101297442
2051,2.052000,2035,-13,-13,0,-13,1,-0.00955970306
2052,2.053000,2035,-13,-14,-1,-14,0,-0.0102400547
2053,2.054000,2034,-14,-16,-2,-16,0,-0.0120786773
2054,2.055000,2032,-16,-17,-1,-17,0,-0.0129536912
2055,2.056000,2031,-17,-17,0,-17,1,-0.01275534
2056,2.057000,2031,-17,-16,1,-16,0,-0.012155571
2057,2.058000,2031,-17,-16,1,-16,0,-0.0119061666
2058,2.059000,2032,-16,-16,0,-16,1,-0.0116992695
2059,2.060000,2032,-16,-15,1,-15,0,-0.0114340531
2060,2.061000,2032,-16,-15,1,-15,0,-0.011099048
2061,2.062000,2033,-15,-16,-1,-16,0,-0.0117877396
2062,2.063000,2032,-16,-16,0,-16,1,-0.0118620116
2063,2.064000,2033,-15,-16,-1,-16,0,-0.0119135445
2064,2.065000,2031,-17,-17,0,-17,1,-0.0132526476
2065,2.066000,2030,-18,-18,0,-18,1,-0.0136033688
2066,2.067000,2030,-18,-17,1,-17,0,-0.0132163493
2067,2.068000,2031,-17,-17,0,-17,1,-0.0124998344
2068,2.069000,2032,-16,-16,0,-16,1,-0.0124878986
2069,2.070000,2032,-16,-17,-1,-17,0,-0.012788889
2070,2.071000,2032,-16,-17,-1,-17,0,-0.0132028861
2071,2.072000,2031,-17,-18,-1,-18,0,-0.0136092603
2072,2.073000,2029,-19,-19,0,-19,1,-0.014420717
2073,2.074000,2029,-19,-19,0,-19,1,-0.0148565723
2074,2.075000,2029,-19,-20,-1,-20,0,-0.0149451625
2075,2.076000,2028,-20,-20,0,-20,1,-0.0153860068
2076,2.077000,2028,-20,-20,0,-20,1,-0.0153156593
2077,2.078000,2028,-20,-20,0,-20,1,-0.0151830586
2078,2.079000,2028,-20,-20,0,-20,1,-0.0152805671
2079,2.080000,2028,-20,-20,0,-20,1,-0.0150723504
2080,2.081000,2028,-20,-19,1,-19,0,-0.014827338
2081,2.082000,2028,-20,-19,1,-19,0,-0.0146625033
2082,2.083000,2028,-20,-19,1,-19,0,-0.0146219963
2083,2.084000,2029,-19,-20,-1,-20,0,-0.0151562346
2084,2.085000,2028,-20,-20,0,-20,1,-0.0156341866
2085,2.086000,2028,-20,-21,-1,-21,0,-0.0159719028
2086,2.087000,2028,-20,-20,0,-20,1,-0.015198376
2087,2.088000,2028,-20,-20,0,-20,1,-0.0150047131
2088,2.089000,2028,-20,-20,0,-20,1,-0.0150945876
2089,2.090000,2028,-20,-20,0,-20,1,-0.0152117545
2090,2.091000,2028,-20,-20,0,-20,1,-0.0152478041
2091,2.092000,2028,-20,-20,0,-20,1,-0.0149207469
2092,2.093000,2029,-19,-19,0,-19,1,-0.0142964963
2093,2.094000,2029,-19,-18,1,-18,0,-0.013875383
2094,2.095000,2029,-19,-20,-1,-20,0,-0.0154859107
2095,2.096000,2026,-22,-22,0,-22,1,-0.0167297125
2096,2.097000,2026,-22,-22,0,-22,1,-0.0168518014
2097,2.098000,2026,-22,-21,1,-21,0,-0.0161549225
2098,2.099000,2026,-22,-20,2,-20,0,-0.0157009996
2099,2.100000,2026,-22,-20,2,-20,0,-0.0155698573
2100,2.101000,2028,-20,-21,-1,-21,0,-0.0162375569
2101,2.102000,2028,-20,-22,-2,-22,0,-0.0166971963
2102,2.103000,2026,-22,-22,0,-22,1,-0.0165878404
2103,2.104000,2028,-20,-20,0,-20,1,-0.0155581301
2104,2.105000,2028,-20,-20,0,-20,1,-0.0154730771
2105,2.106000,2028,-20,-20,0,-20,1,-0.0156593584
2106,2.107000,2028,-20,-21,-1,-21,0,-0.0158285387
2107,2.108000,2028,-20,-21,-1,-21,0,-0.015860552
2108,2.109000,2027,-21,-21,0,-21,1,-0.0157191027
2109,2.110000,2027,-21,-20,1,-20,0,-0.0154160075
2110,2.111000,2027,-21,-20,1,-20,0,-0.0149926674
2111,2.112000,2027,-21,-19,2,-19,0,-0.0145070925
2112,2.113000,2027,-21,-18,3,-18,0,-0.014022816
2113,2.114000,2030,-18,-18,0,-18,1,-0.0136890057
2114,2.115000,2030,-18,-18,0,-18,1,-0.0138993207
2115,2.116000,2030,-18,-18,0,-18,1,-0.0138853919
2116,2.117000,2030,-18,-18,0,-18,1,-0.013888157
2117,2.118000,2030,-18,-18,0,-18,1,-0.0139889857
2118,2.119000,2030,-18,-19,-1,-19,0,-0.0141956601
2119,2.120000,2029,-19,-18,1,-18,0,-0.0136866197
2120,2.121000,2030,-18,-18,0,-18,1,-0.0133630503
2121,2.122000,2030,-18,-18,0,-18,1,-0.0134827979
2122,2.123000,2031,-17,-16,1,-16,0,-0.0117240157
2123,2.124000,2033,-15,-14,1,-14,0,-0.010853136
2124,2.125000,2034,-14,-14,0,-14,1,-0.010599493
2125,2.126000,2034,-14,-14,0,-14,1,-0.0104353121
2126,2.127000,2034,-14,-14,0,-14,1,-0.0101727638
2127,2.128000,2035,-13,-13,0,-13,1,-0.00960206799
2128,2.129000,2036,-12,-12,0,-12,1,-0.00862290431
2129,2.130000,2036,-12,-11,1,-11,0,-0.00792472996
2130,2.131000,2039,-9,-9,0,-9,1,-0.00643538171
2131,2.132000,2040,-8,-7,1,-7,0,-0.00485702837
2132,2.133000,2041,-7,-6,1,-6,0,-0.00421611266
2133,2.134000,2043,-5,-4,1,-4,0,-0.00265792827
2134,2.135000,2044,-4,-3,1,-3,0,-0.00179903419
2135,2.136000,2045,-3,-3,0,-3,1,-0.00167970662
2136,2.137000,2047,-1,-1,0,-1,1,0.000309989467
2137,2.138000,2048,0,0,0,0,1,0.00101873069
2138,2.139000,2048,0,0,0,0,1,0.00118981651
2139,2.140000,2048,0,1,1,1,0,0.00168085366
2140,2.141000,2048,0,1,1,1,0,0.00189243269
2141,2.142000,2050,2,2,0,2,1,0.00236028805
2142,2.143000,2050,2,3,1,3,0,0.00310442224
2143,2.144000,2051,3,4,1,4,0,0.00364322774
2144,2.145000,2052,4,4,0,4,1,0.00372762582
2145,2.146000,2052,4,4,0,4,1,0.00384870078
2146,2.147000,2052,4,4,0,4,1,0.00413280725
2147,2.148000,2052,4,4,0,4,1,0.0043907254
2148,2.149000,2052,4,5,1,5,0,0.00453451788
2149,2.150000,2052,4,5,1,5,0,0.0045307721
2150,2.151000,2053,5,6,1,6,0,0.00551953586
2151,2.152000,2054,6,6,0,6,1,0.00564974872
2152,2.153000,2054,6,6,0,6,1,0.00557123451
2153,2.154000,2054,6,6,0,6,1,0.00567852659
2154,2.155000,2054,6,6,0,6,1,0.00547852833
2155,2.156000,2055,7,7,0,7,1,0.00618756469
2156,2.157000,2056,8,8,0,8,1,0.00720507
2157,2.158000,2056,8,8,0,8,1,0.00756286271
2158,2.159000,2056,8,9,1,9,0,0.00778837036
2159,2.160000,2056,8,9,1,9,0,0.00806389377
2160,2.161000,2056,8,9,1,9,0,0.00842532422
2161,2.162000,2057,9,9,0,9,1,0.00777931139
2162,2.163000,2057,9,9,0,9,1,0.00775399478
2163,2.164000,2057,9,9,0,9,1,0.00810416136
2164,2.165000,2058,10,10,0,10,1,0.00889376644
2165,2.166000,2058,10,10,0,10,1,0.00919947308
2166,2.167000,2058,10,11,1,11,0,0.00945098419
2167,2.168000,2059,11,11,0,11,1,0.00967688672
2168,2.169000,2059,11,11,0,11,1,0.00946963951
2169,2.170000,2059,11,11,0,11,1,0.00948280096
2170,2.171000,2059,11,11,0,11,1,0.00938258972
2171,2.172000,2059,11,10,-1,10,0,0.00910180435
2172,2.173000,2059,11,10,-1,10,0,0.0088491058
2173,2.174000,2059,11,10,-1,10,0,0.00871550106
2174,2.175000,2059,11,10,-1,10,0,0.0087308595
2175,2.176000,2058,10,10,0,10,1,0.00888778362
2176,2.177000,2058,10,10,0,10,1,0.00915444922
2177,2.178000,2059,11,10,-1,10,0,0.0091421539
2178,2.179000,2058,10,10,0,10,1,0.00853727851
2179,2.180000,2058,10,10,0,10,1,0.00854622759
2180,2.181000,2058,10,10,0,10,1,0.00870341808
2181,2.182000,2058,10,10,0,10,1,0.00881147664
2182,2.183000,2058,10,10,0,10,1,0.00879307557
2183,2.184000,2058,10,10,0,10,1,0.00863218307
2184,2.185000,2058,10,9,-1,9,0,0.00834823027
2185,2.186000,2058,10,9,-1,9,0,0.00798173714
2186,2.187000,2056,8,8,0,8,1,0.00705082342
2187,2.188000,2056,8,7,-1,7,0,0.00644832989
2188,2.189000,2055,7,7,0,7,1,0.00635109749
2189,2.190000,2056,8,9,1,9,0,0.00771609601
2190,2.191000,2057,9,9,0,9,1,0.00812220853
2191,2.192000,2057,9,9,0,9,1,0.00800589193
2192,2.193000,2057,9,9,0,9,1,0.0076916744
2193,2.194000,2057,9,9,0,9,1,0.00773920259
2194,2.195000,2057,9,8,-1,8,0,0.00716897147
2195,2.196000,2056,8,7,-1,7,0,0.00682234112
2196,2.197000,2055,7,8,1,8,0,0.00693540182
2197,2.198000,2056,8,7,-1,7,0,0.00665613823
2198,2.199000,2056,8,7,-1,7,0,0.0065565994
2199,2.200000,2056,8,7,-1,7,0,0.00651952485
2200,2.201000,2055,7,6,-1,6,0,0.00583186978
2201,2.202000,2054,6,6,0,6,1,0.00539674098
2202,2.203000,2053,5,6,1,6,0,0.00552577898
2203,2.204000,2055,7,7,0,7,1,0.00654591946
2204,2.205000,2055,7,7,0,7,1,0.00658151833
2205,2.206000,2055,7,7,0,7,1,0.00661462313
2206,2.207000,2055,7,7,0,7,1,0.00669838954
2207,2.208000,2055,7,7,0,7,1,0.00662645977
2208,2.209000,2055,7,7,0,7,1,0.00662497105
2209,2.210000,2055,7,7,0,7,1,0.0067668329
2210,2.211000,2056,8,8,0,8,1,0.00705072563
2211,2.212000,2055,7,6,-1,6,0,0.00583821489
2212,2.213000,2054,6,6,0,6,1,0.00559221162
2213,2.214000,2054,6,6,0,6,1,0.00574278599
2214,2.215000,2054,6,6,0,6,1,0.00553553458
2215,2.216000,2054,6,6,0,6,1,0.00558548886
2216,2.217000,2055,7,7,0,7,1,0.00656215101
2217,2.218000,2056,8,9,1,9,0,0.00809958577
2218,2.219000,2057,9,9,0,9,1,0.00828460231
2219,2.220000,2057,9,8,-1,8,0,0.00753240054
2220,2.221000,2057,9,7,-2,7,0,0.00668900134
2221,2.222000,2057,9,7,-2,7,0,0.00610013958
2222,2.223000,2055,7,8,1,8,0,0.00719528086
2223,2.224000,2056,8,9,1,9,0,0.00777470507
2224,2.225000,2056,8,9,1,9,0,0.00798375439
2225,2.226000,2056,8,7,-1,7,0,0.00647532847
2226,2.227000,2055,7,7,0,7,1,0.00617763121
2227,2.228000,2055,7,6,-1,6,0,0.00592633849
2228,2.229000,2053,5,5,0,5,1,0.00496467855
2229,2.230000,2053,5,5,0,5,1,0.00498804357
2230,2.231000,2053,5,5,0,5,1,0.00494169258
2231,2.232000,2053,5,5,0,5,1,0.00475163665
2232,2.233000,2053,5,5,0,5,1,0.00463183876
2233,2.234000,2053,5,6,1,6,0,0.00527456636
2234,2.235000,2054,6,6,0,6,1,0.00542231416
2235,2.236000,2054,6,5,-1,5,0,0.00501981843
2236,2.237000,2053,5,4,-1,4,0,0.00441968301
2237,2.238000,2053,5,4,-1,4,0,0.00381682091
2238,2.239000,2053,5,3,-2,3,0,0.00333053526
2239,2.240000,2051,3,3,0,3,1,0.00303162634
2240,2.241000,2051,3,3,0,3,1,0.0029510404
2241,2.242000,2051,3,3,0,3,1,0.00284011569
2242,2.243000,2050,2,2,0,2,1,0.00272908015
2243,2.244000,2050,2,3,1,3,0,0.00303658145
2244,2.245000,2050,2,1,-1,1,0,0.00151651993
2245,2.246000,2048,0,-1,-1,-1,0,0.000385089661
2246,2.247000,2048,0,-1,-1,-1,0,0.000315981772
2247,2.248000,2048,0,0,0,0,1,0.000482017029
2248,2.249000,2048,0,0,0,0,1,0.000548421987
2249,2.250000,2048,0,-1,-1,-1,0,0.000398906792
2250,2.251000,2048,0,0,0,0,1,0.00116351363
2251,2.252000,2049,1,0,-1,0,0,0.00101493916
2252,2.253000,2048,0,0,0,0,1,0.000641144579
2253,2.254000,2048,0,0,0,0,1,0.000477659923
2254,2.255000,2048,0,-1,-1,-1,0,6.74096518e-05
2255,2.256000,2047,-1,-1,0,-1,1,3.23494678e-05
2256,2.257000,2047,-1,-1,0,-1,1,0.000266040646
2257,2.258000,2047,-1,0,1,0,0,0.000472380227
2258,2.259000,2048,0,-1,-1,-1,0,0.000363974454
2259,2.260000,2047,-1,0,1,0,0,0.000565802271
2260,2.261000,2047,-1,0,1,0,0,0.00107433763
2261,2.262000,2048,0,0,0,0,1,0.0011397464
2262,2.263000,2048,0,1,1,1,0,0.00146557926
2263,2.264000,2049,1,1,0,1,1,0.00146242022
2264,2.265000,2047,-1,-2,-1,-2,0,-0.000427299878
2265,2.266000,2046,-2,-2,0,-2,1,-0.0010797088
2266,2.267000,2045,-3,-2,1,-2,0,-0.000940697617
2267,2.268000,2046,-2,-2,0,-2,1,-0.000476651679
2268,2.269000,2046,-2,-2,0,-2,1,-0.000724267098
2269,2.270000,2046,-2,-3,-1,-3,0,-0.00127362343
2270,2.271000,2045,-3,-3,0,-3,1,-0.00190167816
2271,2.272000,2045,-3,-4,-1,-4,0,-0.0024679976
2272,2.273000,2043,-5,-5,0,-5,1,-0.00337306107
2273,2.274000,2043,-5,-6,-1,-6,0,-0.00383335026
2274,2.275000,2042,-6,-6,0,-6,1,-0.00388374832
2275,2.276000,2042,-6,-6,0,-6,1,-0.00423822692
2276,2.277000,2042,-6,-6,0,-6,1,-0.00405322434
2277,2.278000,2042,-6,-5,1,-5,0,-0.00345783005
2278,2.279000,2043,-5,-4,1,-4,0,-0.00250484399
2279,2.280000,2043,-5,-3,2,-3,0,-0.00193317782
2280,2.281000,2045,-3,-4,-1,-4,0,-0.00221984508
2281,2.282000,2044,-4,-5,-1,-5,0,-0.00283525605
2282,2.283000,2043,-5,-5,0,-5,1,-0.00308099738
2283,2.284000,2044,-4,-4,0,-4,1,-0.0023883956
2284,2.285000,2044,-4,-4,0,-4,1,-0.00207899674
2285,2.286000,2044,-4,-4,0,-4,1,-0.00225362857
2286,2.287000,2044,-4,-4,0,-4,1,-0.00206673308
2287,2.288000,2044,-4,-4,0,-4,1,-0.00219997903
2288,2.289000,2044,-4,-4,0,-4,1,-0.00224573095
2289,2.290000,2045,-3,-3,0,-3,1,-0.00134506659
2290,2.291000,2046,-2,-2,0,-2,1,-0.00102734612
2291,2.292000,2046,-2,-3,-1,-3,0,-0.00154869107
2292,2.293000,2044,-4,-4,0,-4,1,-0.00255018938
2293,2.294000,2044,-4,-4,0,-4,1,-0.00257407967
2294,2.295000,2044,-4,-3,1,-3,0,-0.00183115597
2295,2.296000,2045,-3,-2,1,-2,0,-0.00107770797
2296,2.297000,2045,-3,-2,1,-2,0,-0.000613184005
2297,2.298000,2045,-3,-3,0,-3,1,-0.00183809176
2298,2.299000,2044,-4,-4,0,-4,1,-0.00253236224
2299,2.300000,2044,-4,-5,-1,-5,0,-0.00282730325
2300,2.301000,2043,-5,-5,0,-5,1,-0.00307531911
2301,2.302000,2043,-5,-5,0,-5,1,-0.00338661042
2302,2.303000,2042,-6,-5,1,-5,0,-0.00325488904
2303,2.304000,2044,-4,-4,0,-4,1,-0.00225175219
2304,2.305000,2044,-4,-4,0,-4,1,-0.00221077655
2305,2.306000,2044,-4,-4,0,-4,1,-0.00275531877
2306,2.307000,2043,-5,-5,0,-5,1,-0.00335017196
2307,2.308000,2043,-5,-5,0,-5,1,-0.00353583624
2308,2.309000,2043,-5,-5,0,-5,1,-0.00300472369
2309,2.310000,2043,-5,-4,1,-4,0,-0.00244849338
2310,2.311000,2043,-5,-3,2,-3,0,-0.00198289659
2311,2.312000,2043,-5,-6,-1,-6,0,-0.00366717414
2312,2.313000,2042,-6,-6,0,-6,1,-0.00414861972
2313,2.314000,2042,-6,-6,0,-6,1,-0.00419825036
2314,2.315000,2041,-7,-7,0,-7,1,-0.00501313899
2315,2.316000,2041,-7,-7,0,-7,1,-0.00520901149
2316,2.317000,2040,-8,-7,1,-7,0,-0.00483821891
2317,2.318000,2042,-6,-6,0,-6,1,-0.00422150875
2318,2.319000,2042,-6,-6,0,-6,1,-0.00434703473
2319,2.320000,2041,-7,-6,1,-6,0,-0.00400028704
2320,2.321000,2042,-6,-6,0,-6,1,-0.00390600553
2321,2.322000,2042,-6,-6,0,-6,1,-0.00423532585
2322,2.323000,2041,-7,-7,0,-7,1,-0.00508394092
2323,2.324000,2041,-7,-8,-1,-8,0,-0.00554505503
2324,2.325000,2040,-8,-8,0,-8,1,-0.00560303312
2325,2.326000,2040,-8,-7,1,-7,0,-0.00481360219
2326,2.327000,2040,-8,-6,2,-6,0,-0.00420469884
2327,2.328000,2042,-6,-6,0,-6,1,-0.00381257012
2328,2.329000,2042,-6,-6,0,-6,1,-0.00374283944
2329,2.330000,2042,-6,-5,1,-5,0,-0.00340006314
2330,2.331000,2042,-6,-6,0,-6,1,-0.00397267006
2331,2.332000,2041,-7,-7,0,-7,1,-0.0048612575
2332,2.333000,2041,-7,-7,0,-7,1,-0.00510856463
2333,2.334000,2041,-7,-6,1,-6,0,-0.00435967371
2334,2.335000,2042,-6,-6,0,-6,1,-0.00402293494
2335,2.336000,2042,-6,-6,0,-6,1,-0.00422933837
2336,2.337000,2042,-6,-6,0,-6,1,-0.00413522916
2337,2.338000,2042,-6,-6,0,-6,1,-0.00440875487
2338,2.339000,2041,-7,-7,0,-7,1,-0.00453067292
2339,2.340000,2042,-6,-5,1,-5,0,-0.00327070593
2340,2.341000,2043,-5,-5,0,-5,1,-0.00293224724
2341,2.342000,2043,-5,-4,1,-4,0,-0.0027876175
2342,2.343000,2043,-5,-4,1,-4,0,-0.00256703771
2343,2.344000,2043,-5,-4,1,-4,0,-0.00219849148
2344,2.345000,2045,-3,-3,0,-3,1,-0.00170057046
2345,2.346000,2045,-3,-2,1,-2,0,-0.00113346439
2346,2.347000,2045,-3,-2,1,-2,0,-0.000572256162
2347,2.348000,2046,-2,-4,-2,-4,0,-0.00205908483
2348,2.349000,2044,-4,-4,0,-4,1,-0.0027291514
2349,2.350000,2044,-4,-5,-1,-5,0,-0.00282390323
2350,2.351000,2044,-4,-4,0,-4,1,-0.00229707104
2351,2.352000,2044,-4,-4,0,-4,1,-0.00227648392
2352,2.353000,2044,-4,-3,1,-3,0,-0.00189884205
2353,2.354000,2046,-2,-2,0,-2,1,-0.000501956325
2354,2.355000,2047,-1,-2,-1,-2,0,-0.000489307742
2355,2.356000,2047,-1,-2,-1,-2,0,-0.000917592901
2356,2.357000,2046,-2,-3,-1,-3,0,-0.00136815163
2357,2.358000,2046,-2,-3,-1,-3,0,-0.00165051303
2358,2.359000,2045,-3,-3,0,-3,1,-0.00124186347
2359,2.360000,2045,-3,-2,1,-2,0,-0.000744170917
2360,2.361000,2045,-3,-1,2,-1,0,-0.000242798938
2361,2.362000,2046,-2,-3,-1,-3,0,-0.0012658427
2362,2.363000,2045,-3,-3,0,-3,1,-0.00132179668
2363,2.364000,2046,-2,-2,0,-2,1,-0.0010742445
2364,2.365000,2045,-3,-3,0,-3,1,-0.00163906976
2365,2.366000,2045,-3,-3,0,-3,1,-0.00161964097
2366,2.367000,2045,-3,-3,0,-3,1,-0.00132330705
2367,2.368000,2046,-2,-2,0,-2,1,-0.00102045364
2368,2.369000,2046,-2,-3,-1,-3,0,-0.00123308378
2369,2.370000,2045,-3,-3,0,-3,1,-0.00133759691
2370,2.371000,2045,-3,-3,0,-3,1,-0.00165504403
2371,2.372000,2045,-3,-4,-1,-4,0,-0.00221750373
2372,2.373000,2045,-3,-4,-1,-4,0,-0.00277120736
2373,2.374000,2045,-3,-5,-2,-5,0,-0.00317921722
2374,2.375000,2043,-5,-5,0,-5,1,-0.00337210041
2375,2.376000,2043,-5,-5,0,-5,1,-0.00332930614
2376,2.377000,2043,-5,-5,0,-5,1,-0.00306939636
2377,2.378000,2044,-4,-5,-1,-5,0,-0.00332536595
2378,2.379000,2042,-6,-7,-1,-7,0,-0.00468809716
2379,2.380000,2041,-7,-7,0,-7,1,-0.00472134352
2380,2.381000,2041,-7,-7,0,-7,1,-0.00496829161
2381,2.382000,2041,-7,-8,-1,-8,0,-0.00534930499
2382,2.383000,2040,-8,-8,0,-8,1,-0.00536587648
2383,2.384000,2043,-5,-4,1,-4,0,-0.00275073573
2384,2.385000,2044,-4,-3,1,-3,0,-0.00129393826
2385,2.386000,2046,-2,-3,-1,-3,0,-0.00127920008
2386,2.387000,2045,-3,-4,-1,-4,0,-0.00234159874
2387,2.388000,2044,-4,-5,-1,-5,0,-0.00321969949
2388,2.389000,2042,-6,-6,0,-6,1,-0.00374438893
2389,2.390000,2042,-6,-5,1,-5,0,-0.00356992381
2390,2.391000,2042,-6,-5,1,-5,0,-0.00348988222
2391,2.392000,2043,-5,-5,0,-5,1,-0.00353282015
2392,2.393000,2042,-6,-5,1,-5,0,-0.00358417234
2393,2.394000,2042,-6,-5,1,-5,0,-0.00319747138
2394,2.395000,2043,-5,-4,1,-4,0,-0.00263250433
2395,2.396000,2043,-5,-4,1,-4,0,-0.00204640557
2396,2.397000,2043,-5,-3,2,-3,0,-0.00154575217
2397,2.398000,2045,-3,-4,-1,-4,0,-0.00218619662
2398,2.399000,2044,-4,-4,0,-4,1,-0.00254445663
2399,2.400000,2044,-4,-4,0,-4,1,-0.00272987108
2400,2.401000,2044,-4,-3,1,-3,0,-0.00183838664
2401,2.402000,2045,-3,-3,0,-3,1,-0.00180445157
2402,2.403000,2044,-4,-3,1,-3,0,-0.00165644486
2403,2.404000,2046,-2,-2,0,-2,1,-0.000732802495
2404,2.405000,2046,-2,-2,0,-2,1,-0.000767537626
2405,2.406000,2045,-3,-3,0,-3,1,-0.00165269396
2406,2.407000,2044,-4,-4,0,-4,1,-0.00259958627
2407,2.408000,2044,-4,-4,0,-4,1,-0.00281554949
2408,2.409000,2045,-3,-3,0,-3,1,-0.00173615816
2409,2.410000,2045,-3,-2,1,-2,0,-0.000751847634
2410,2.411000,2046,-2,-1,1,-1,0,-7.2787836e-05
2411,2.412000,2046,-2,0,2,0,0,0.000485567027
2412,2.413000,2048,0,0,0,0,1,0.000955276191
2413,2.414000,2048,0,1,1,1,0,0.00131756102
2414,2.415000,2048,0,1,1,1,0,0.00154598593
2415,2.416000,2048,0,1,1,1,0,0.00162497675
2416,2.417000,2049,1,1,0,1,1,0.00180091732
2417,2.418000,2049,1,2,1,2,0,0.00202965387
2418,2.419000,2049,1,1,0,1,1,0.00187140936
2419,2.420000,2052,4,4,0,4,1,0.00394464284
2420,2.421000,2053,5,6,1,6,0,0.00553643238
2421,2.422000,2054,6,6,0,6,1,0.00579973869
2422,2.423000,2054,6,7,1,7,0,0.00619448395
2423,2.424000,2054,6,7,1,7,0,0.00638040947
2424,2.425000,2054,6,7,1,7,0,0.00655069947
2425,2.426000,2054,6,8,2,8,0,0.00685765827
2426,2.427000,2056,8,8,0,8,1,0.00731553417
2427,2.428000,2057,9,9,0,9,1,0.00770384353
2428,2.429000,2057,9,9,0,9,1,0.0078160828
2429,2.430000,2057,9,9,0,9,1,0.00820041075
2430,2.431000,2057,9,10,1,10,0,0.0088853268
2431,2.432000,2058,10,11,1,11,0,0.00949642342
2432,2.433000,2059,11,11,0,11,1,0.00964144804
2433,2.434000,2060,12,12,0,12,1,0.0108328648
2434,2.435000,2061,13,13,0,13,1,0.011345136
2435,2.436000,2061,13,13,0,13,1,0.011122141
2436,2.437000,2061,13,13,0,13,1,0.0111940671
2437,2.438000,2061,13,13,0,13,1,0.0109584536
2438,2.439000,2060,12,12,0,12,1,0.0108553814
2439,2.440000,2061,13,14,1,14,0,0.0117524639
2440,2.441000,2061,13,14,1,14,0,0.0121151935
2441,2.442000,2062,14,14,0,14,1,0.0121621545
2442,2.443000,2062,14,14,0,14,1,0.0121045336
2443,2.444000,2062,14,14,0,14,1,0.012429662
2444,2.445000,2063,15,15,0,15,1,0.0128990998
2445,2.446000,2063,15,16,1,16,0,0.0133707589
2446,2.447000,2063,15,16,1,16,0,0.0137509508
2447,2.448000,2065,17,17,0,17,1,0.0144724771
2448,2.449000,2065,17,17,0,17,1,0.0147755966
2449,2.450000,2065,17,17,0,17,1,0.0147114014
2450,2.451000,2066,18,18,0,18,1,0.0155714341
2451,2.452000,2066,18,18,0,18,1,0.0155740259
2452,2.453000,2066,18,18,0,18,1,0.01557298
2453,2.454000,2067,19,19,0,19,1,0.0161070991
2454,2.455000,2067,19,19,0,19,1,0.0160563681
2455,2.456000,2067,19,20,1,20,0,0.0165320132
2456,2.457000,2068,20,20,0,20,1,0.0172462706
2457,2.458000,2069,21,21,0,21,1,0.0175848864
2458,2.459000,2068,20,20,0,20,1,0.0165516622
2459,2.460000,2067,19,19,0,19,1,0.0160701498
2460,2.461000,2067,19,19,0,19,1,0.0162709225
2461,2.462000,2067,19,19,0,19,1,0.0161508024
2462,2.463000,2067,19,19,0,19,1,0.0163216852
2463,2.464000,2067,19,19,0,19,1,0.0163470469
2464,2.465000,2066,18,18,0,18,1,0.0153614571
2465,2.466000,2066,18,17,-1,17,0,0.0149018234
2466,2.467000,2065,17,17,0,17,1,0.0142641347
2467,2.468000,2065,17,16,-1,16,0,0.0133699887
2468,2.469000,2064,16,15,-1,15,0,0.0126862992
2469,2.470000,2063,15,15,0,15,1,0.0132575305
2470,2.471000,2064,16,16,0,16,1,0.0136538399
2471,2.472000,2064,16,16,0,16,1,0.0134491064
2472,2.473000,2063,15,15,0,15,1,0.0126527511
2473,2.474000,2063,15,14,-1,14,0,0.01220778
2474,2.475000,2062,14,14,0,14,1,0.0121406605
2475,2.476000,2062,14,14,0,14,1,0.0117600355
2476,2.477000,2062,14,14,0,14,1,0.0119166998
2477,2.478000,2062,14,14,0,14,1,0.0121406466
2478,2.479000,2062,14,14,0,14,1,0.0121170534
2479,2.480000,2062,14,14,0,14,1,0.0123624317
2480,2.481000,2063,15,15,0,15,1,0.0129046384
2481,2.482000,2063,15,16,1,16,0,0.0133802034
2482,2.483000,2064,16,16,0,16,1,0.0134103252
2483,2.484000,2064,16,15,-1,15,0,0.0127304336
