# sample_index adc_code aperture_ns
1 2028 1000000
2 2020 2000000
3 2018 3000000
4 2018 4000000
5 2017 5000000
6 2017 6000000
7 2017 7000000
8 2015 8000000
9 2015 9000000
10 2015 10000000
11 2009 11000000
12 2009 12000000
13 2008 13000000
14 2008 14000000
15 2009 15000000
16 2009 16000000
17 2010 17000000
18 2010 18000000
19 2010 19000000
20 2015 20000000
21 2015 21000000
22 2016 22000000
23 2018 23000000
24 2020 24000000
25 2020 25000000
26 2017 26000000
27 2016 27000000
28 2014 28000000
29 2012 29000000
30 2012 30000000
31 2012 31000000
32 2012 32000000
33 2013 33000000
34 2013 34000000
35 2013 35000000
36 2013 36000000
37 2014 37000000
38 2014 38000000
39 2014 39000000
40 2013 40000000
41 2012 41000000
42 2011 42000000
43 2009 43000000
44 2008 44000000
45 2007 45000000
46 2007 46000000
47 2006 47000000
48 2007 48000000
49 2006 49000000
50 2007 50000000
51 2008 51000000
52 2010 52000000
53 2011 53000000
54 2012 54000000
55 2013 55000000
56 2012 56000000
57 2010 57000000
58 2009 58000000
59 2009 59000000
60 2009 60000000
61 2009 61000000
62 2008 62000000
63 2008 63000000
64 2008 64000000
65 2009 65000000
66 2010 66000000
67 2011 67000000
68 2013 68000000
69 2014 69000000
70 2016 70000000
71 2017 71000000
72 2018 72000000
73 2016 73000000
74 2016 74000000
75 2015 75000000
76 2012 76000000
77 2011 77000000
78 2010 78000000
79 2009 79000000
80 2009 80000000
81 2006 81000000
82 2004 82000000
83 2002 83000000
84 2001 84000000
85 2001 85000000
86 2000 86000000
87 1998 87000000
88 1994 88000000
89 1994 89000000
90 1993 90000000
91 1993 91000000
92 1994 92000000
93 1993 93000000
94 1994 94000000
95 1993 95000000
96 1993 96000000
97 1992 97000000
98 1992 98000000
99 1992 99000000
100 1992 100000000
101 1992 101000000
102 1991 102000000
103 1990 103000000
104 1991 104000000
105 1991 105000000
106 1992 106000000
107 1992 107000000
108 1993 108000000
109 1994 109000000
110 1994 110000000
111 1994 111000000
112 1994 112000000
113 1994 113000000
114 1994 114000000
115 1993 115000000
116 1993 116000000
117 1992 117000000
118 1992 118000000
119 1991 119000000
120 1991 120000000
121 1991 121000000
122 1991 122000000
123 1989 123000000
124 1989 124000000
125 1989 125000000
126 1990 126000000
127 1991 127000000
128 1991 128000000
129 1991 129000000
130 1991 130000000
131 1991 131000000
132 1990 132000000
133 1990 133000000
134 1992 134000000
135 1993 135000000
136 1994 136000000
137 1994 137000000
138 1995 138000000
139 1995 139000000
140 1995 140000000
141 1995 141000000
142 1995 142000000
143 1995 143000000
144 1995 144000000
145 1996 145000000
146 1996 146000000
147 1996 147000000
148 1995 148000000
149 1994 149000000
150 1994 150000000
151 1995 151000000
152 1996 152000000
153 1995 153000000
154 1994 154000000
155 1993 155000000
156 1993 156000000
157 1994 157000000
158 1995 158000000
159 1995 159000000
160 1995 160000000
161 1995 161000000
162 1995 162000000
163 1995 163000000
164 1996 164000000
165 1994 165000000
166 1994 166000000
167 1994 167000000
168 1993 168000000
169 1992 169000000
170 1991 170000000
171 1988 171000000
172 1988 172000000
173 1985 173000000
174 1982 174000000
175 1982 175000000
176 1979 176000000
177 1977 177000000
178 1977 178000000
179 1977 179000000
180 1977 180000000
181 1977 181000000
182 1974 182000000
183 1974 183000000
184 1969 184000000
185 1964 185000000
186 1963 186000000
187 1960 187000000
188 1957 188000000
189 1957 189000000
190 1956 190000000
191 1956 191000000
192 1958 192000000
193 1963 193000000
194 1965 194000000
195 1972 195000000
196 1982 196000000
197 1984 197000000
198 2000 198000000
199 2005 199000000
200 2009 200000000
201 2035 201000000
202 2044 202000000
203 2056 203000000
204 2080 204000000
205 2088 205000000
206 2109 206000000
207 2142 207000000
208 2151 208000000
209 2176 209000000
210 2202 210000000
211 2207 211000000
212 2226 212000000
213 2243 213000000
214 2253 214000000
215 2265 215000000
216 2272 216000000
217 2272 217000000
218 2267 218000000
219 2267 219000000
220 2252 220000000
221 2230 221000000
222 2223 222000000
223 2174 223000000
224 2150 224000000
225 2141 225000000
226 2091 226000000
227 2065 227000000
228 2046 228000000
229 2015 229000000
230 2002 230000000
231 1985 231000000
232 1970 232000000
233 1970 233000000
234 1958 234000000
235 1958 235000000
236 1952 236000000
237 1956 237000000
238 1960 238000000
239 1967 239000000
240 1976 240000000
241 1976 241000000
242 1984 242000000
243 1987 243000000
244 1991 244000000
245 1993 245000000
246 1993 246000000
247 1993 247000000
248 1993 248000000
249 1993 249000000
250 1993 250000000
251 1987 251000000
252 1987 252000000
253 1985 253000000
254 1985 254000000
255 1985 255000000
256 1986 256000000
257 1989 257000000
258 1989 258000000
259 1991 259000000
260 1993 260000000
261 1997 261000000
262 1997 262000000
263 1997 263000000
264 1997 264000000
265 1996 265000000
266 1994 266000000
267 1993 267000000
268 1993 268000000
269 1990 269000000
270 1989 270000000
271 1990 271000000
272 1991 272000000
273 1990 273000000
274 1988 274000000
275 1987 275000000
276 1990 276000000
277 1990 277000000
278 1992 278000000
279 1994 279000000
280 1995 280000000
281 1995 281000000
282 1995 282000000
283 1995 283000000
284 1994 284000000
285 1994 285000000
286 1994 286000000
287 1994 287000000
288 1994 288000000
289 1995 289000000
290 1994 290000000
291 1994 291000000
292 1995 292000000
293 1995 293000000
294 1995 294000000
295 1995 295000000
296 1994 296000000
297 1994 297000000
298 1994 298000000
299 1993 299000000
300 1993 300000000
301 1995 301000000
302 1995 302000000
303 1995 303000000
304 1996 304000000
305 1996 305000000
306 1998 306000000
307 2000 307000000
308 2001 308000000
309 2001 309000000
310 2000 310000000
311 2000 311000000
312 2001 312000000
313 2001 313000000
314 2003 314000000
315 2003 315000000
316 2002 316000000
317 2002 317000000
318 2000 318000000
319 2000 319000000
320 1998 320000000
321 1998 321000000
322 1998 322000000
323 1997 323000000
324 1997 324000000
325 1996 325000000
326 1996 326000000
327 1996 327000000
328 1997 328000000
329 1996 329000000
330 1996 330000000
331 1996 331000000
332 1996 332000000
333 1996 333000000
334 1998 334000000
335 1999 335000000
336 1999 336000000
337 2000 337000000
338 2000 338000000
339 2001 339000000
340 2001 340000000
341 2001 341000000
342 2001 342000000
343 2001 343000000
344 2001 344000000
345 2003 345000000
346 2002 346000000
347 2003 347000000
348 2003 348000000
349 2002 349000000
350 2001 350000000
351 2004 351000000
352 2005 352000000
353 2005 353000000
354 2005 354000000
355 2005 355000000
356 2004 356000000
357 2003 357000000
358 2003 358000000
359 2003 359000000
360 2003 360000000
361 2005 361000000
362 2006 362000000
363 2006 363000000
364 2006 364000000
365 2006 365000000
366 2006 366000000
367 2006 367000000
368 2005 368000000
369 2005 369000000
370 2004 370000000
371 2005 371000000
372 2005 372000000
373 2005 373000000
374 2004 374000000
375 2004 375000000
376 2003 376000000
377 2003 377000000
378 2003 378000000
379 2003 379000000
380 2003 380000000
381 2003 381000000
382 2004 382000000
383 2004 383000000
384 2004 384000000
385 2004 385000000
386 2004 386000000
387 2005 387000000
388 2006 388000000
389 2007 389000000
390 2009 390000000
391 2009 391000000
392 2010 392000000
393 2008 393000000
394 2008 394000000
395 2009 395000000
396 2010 396000000
397 2010 397000000
398 2010 398000000
399 2009 399000000
400 2009 400000000
401 2009 401000000
402 2010 402000000
403 2010 403000000
404 2010 404000000
405 2010 405000000
406 2010 406000000
407 2008 407000000
408 2008 408000000
409 2008 409000000
410 2008 410000000
411 2008 411000000
412 2008 412000000
413 2009 413000000
414 2010 414000000
415 2009 415000000
416 2008 416000000
417 2007 417000000
418 2009 418000000
419 2009 419000000
420 2010 420000000
421 2010 421000000
422 2009 422000000
423 2009 423000000
424 2010 424000000
425 2010 425000000
426 2010 426000000
427 2012 427000000
428 2013 428000000
429 2011 429000000
430 2010 430000000
431 2010 431000000
432 2010 432000000
433 2011 433000000
434 2011 434000000
435 2011 435000000
436 2011 436000000
437 2012 437000000
438 2012 438000000
439 2012 439000000
440 2012 440000000
441 2012 441000000
442 2012 442000000
443 2012 443000000
444 2012 444000000
445 2013 445000000
446 2012 446000000
447 2012 447000000
448 2012 448000000
449 2012 449000000
450 2012 450000000
451 2012 451000000
452 2012 452000000
453 2011 453000000
454 2011 454000000
455 2012 455000000
456 2012 456000000
457 2012 457000000
458 2011 458000000
459 2012 459000000
460 2014 460000000
461 2014 461000000
462 2014 462000000
463 2013 463000000
464 2013 464000000
465 2013 465000000
466 2012 466000000
467 2012 467000000
468 2012 468000000
469 2012 469000000
470 2012 470000000
471 2012 471000000
472 2012 472000000
473 2009 473000000
474 2009 474000000
475 2009 475000000
476 2009 476000000
477 2009 477000000
478 2010 478000000
479 2010 479000000
480 2009 480000000
481 2009 481000000
482 2008 482000000
483 2008 483000000
484 2009 484000000
485 2010 485000000
486 2011 486000000
487 2011 487000000
488 2012 488000000
489 2011 489000000
490 2011 490000000
491 2011 491000000
492 2012 492000000
493 2012 493000000
494 2012 494000000
495 2012 495000000
496 2011 496000000
497 2011 497000000
498 2011 498000000
499 2011 499000000
500 2012 500000000
501 2013 501000000
502 2014 502000000
503 2013 503000000
504 2013 504000000
505 2013 505000000
506 2012 506000000
507 2012 507000000
508 2012 508000000
509 2012 509000000
510 2012 510000000
511 2012 511000000
512 2014 512000000
513 2014 513000000
514 2015 514000000
515 2015 515000000
516 2015 516000000
517 2016 517000000
518 2017 518000000
519 2017 519000000
520 2018 520000000
521 2021 521000000
522 2021 522000000
523 2021 523000000
524 2021 524000000
525 2021 525000000
526 2022 526000000
527 2022 527000000
528 2024 528000000
529 2024 529000000
530 2024 530000000
531 2025 531000000
532 2025 532000000
533 2025 533000000
534 2026 534000000
535 2028 535000000
536 2028 536000000
537 2029 537000000
538 2029 538000000
539 2029 539000000
540 2029 540000000
541 2029 541000000
542 2029 542000000
543 2031 543000000
544 2032 544000000
545 2034 545000000
546 2034 546000000
547 2034 547000000
548 2036 548000000
549 2037 549000000
550 2037 550000000
551 2037 551000000
552 2037 552000000
553 2036 553000000
554 2037 554000000
555 2037 555000000
556 2038 556000000
557 2039 557000000
558 2041 558000000
559 2041 559000000
560 2041 560000000
561 2041 561000000
562 2041 562000000
563 2045 563000000
564 2046 564000000
565 2045 565000000
566 2044 566000000
567 2044 567000000
568 2045 568000000
569 2045 569000000
570 2046 570000000
571 2046 571000000
572 2046 572000000
573 2046 573000000
574 2047 574000000
575 2047 575000000
576 2046 576000000
577 2046 577000000
578 2045 578000000
579 2045 579000000
580 2047 580000000
581 2048 581000000
582 2047 582000000
583 2047 583000000
584 2046 584000000
585 2046 585000000
586 2046 586000000
587 2046 587000000
588 2047 588000000
589 2047 589000000
590 2046 590000000
591 2044 591000000
592 2044 592000000
593 2043 593000000
594 2043 594000000
595 2045 595000000
596 2046 596000000
597 2046 597000000
598 2047 598000000
599 2046 599000000
600 2046 600000000
601 2046 601000000
602 2046 602000000
603 2046 603000000
604 2046 604000000
605 2046 605000000
606 2044 606000000
607 2043 607000000
608 2042 608000000
609 2041 609000000
610 2041 610000000
611 2041 611000000
612 2041 612000000
613 2043 613000000
614 2043 614000000
615 2043 615000000
616 2043 616000000
617 2042 617000000
618 2042 618000000
619 2042 619000000
620 2041 620000000
621 2041 621000000
622 2041 622000000
623 2042 623000000
624 2042 624000000
625 2042 625000000
626 2040 626000000
627 2040 627000000
628 2040 628000000
629 2040 629000000
630 2039 630000000
631 2039 631000000
632 2038 632000000
633 2038 633000000
634 2038 634000000
635 2039 635000000
636 2040 636000000
637 2040 637000000
638 2040 638000000
639 2040 639000000
640 2041 640000000
641 2041 641000000
642 2041 642000000
643 2040 643000000
644 2039 644000000
645 2039 645000000
646 2039 646000000
647 2039 647000000
648 2040 648000000
649 2040 649000000
650 2040 650000000
651 2040 651000000
652 2040 652000000
653 2040 653000000
654 2040 654000000
655 2040 655000000
656 2039 656000000
657 2040 657000000
658 2041 658000000
659 2041 659000000
660 2041 660000000
661 2041 661000000
662 2040 662000000
663 2040 663000000
664 2040 664000000
665 2040 665000000
666 2040 666000000
667 2039 667000000
668 2040 668000000
669 2040 669000000
670 2039 670000000
671 2039 671000000
672 2039 672000000
673 2038 673000000
674 2037 674000000
675 2037 675000000
676 2037 676000000
677 2038 677000000
678 2039 678000000
679 2037 679000000
680 2036 680000000
681 2036 681000000
682 2037 682000000
683 2037 683000000
684 2036 684000000
685 2035 685000000
686 2035 686000000
687 2035 687000000
688 2035 688000000
689 2035 689000000
690 2034 690000000
691 2034 691000000
692 2034 692000000
693 2032 693000000
694 2032 694000000
695 2033 695000000
696 2033 696000000
697 2033 697000000
698 2035 698000000
699 2035 699000000
700 2035 700000000
701 2036 701000000
702 2036 702000000
703 2036 703000000
704 2037 704000000
705 2037 705000000
706 2037 706000000
707 2037 707000000
708 2037 708000000
709 2038 709000000
710 2038 710000000
711 2038 711000000
712 2038 712000000
713 2038 713000000
714 2039 714000000
715 2036 715000000
716 2036 716000000
717 2036 717000000
718 2037 718000000
719 2038 719000000
720 2038 720000000
721 2036 721000000
722 2036 722000000
723 2035 723000000
724 2035 724000000
725 2035 725000000
726 2035 726000000
727 2035 727000000
728 2035 728000000
729 2035 729000000
730 2035 730000000
731 2034 731000000
732 2033 732000000
733 2032 733000000
734 2033 734000000
735 2034 735000000
736 2034 736000000
737 2034 737000000
738 2035 738000000
739 2035 739000000
740 2036 740000000
741 2037 741000000
742 2036 742000000
743 2035 743000000
744 2034 744000000
745 2034 745000000
746 2033 746000000
747 2033 747000000
748 2033 748000000
749 2033 749000000
750 2033 750000000
751 2034 751000000
752 2034 752000000
753 2033 753000000
754 2035 754000000
755 2035 755000000
756 2034 756000000
757 2034 757000000
758 2033 758000000
759 2034 759000000
760 2034 760000000
761 2035 761000000
762 2035 762000000
763 2035 763000000
764 2035 764000000
765 2034 765000000
766 2034 766000000
767 2033 767000000
768 2033 768000000
769 2033 769000000
770 2032 770000000
771 2032 771000000
772 2032 772000000
773 2032 773000000
774 2032 774000000
775 2032 775000000
776 2033 776000000
777 2035 777000000
778 2035 778000000
779 2037 779000000
780 2037 780000000
781 2038 781000000
782 2038 782000000
783 2038 783000000
784 2038 784000000
785 2039 785000000
786 2039 786000000
787 2038 787000000
788 2038 788000000
789 2036 789000000
790 2038 790000000
791 2038 791000000
792 2039 792000000
793 2038 793000000
794 2038 794000000
795 2038 795000000
796 2038 796000000
797 2038 797000000
798 2040 798000000
799 2040 799000000
800 2040 800000000
801 2040 801000000
802 2040 802000000
803 2038 803000000
804 2040 804000000
805 2040 805000000
806 2040 806000000
807 2041 807000000
808 2042 808000000
809 2041 809000000
810 2040 810000000
811 2039 811000000
812 2039 812000000
813 2039 813000000
814 2039 814000000
815 2038 815000000
816 2038 816000000
817 2038 817000000
818 2039 818000000
819 2039 819000000
820 2039 820000000
821 2039 821000000
822 2039 822000000
823 2039 823000000
824 2039 824000000
825 2039 825000000
826 2040 826000000
827 2042 827000000
828 2043 828000000
829 2044 829000000
830 2046 830000000
831 2047 831000000
832 2047 832000000
833 2047 833000000
834 2047 834000000
835 2047 835000000
836 2047 836000000
837 2047 837000000
838 2047 838000000
839 2046 839000000
840 2048 840000000
841 2049 841000000
842 2049 842000000
843 2050 843000000
844 2050 844000000
845 2050 845000000
846 2050 846000000
847 2050 847000000
848 2053 848000000
849 2055 849000000
850 2057 850000000
851 2059 851000000
852 2059 852000000
853 2059 853000000
854 2061 854000000
855 2061 855000000
856 2061 856000000
857 2061 857000000
858 2061 858000000
859 2062 859000000
860 2062 860000000
861 2062 861000000
862 2062 862000000
863 2061 863000000
864 2061 864000000
865 2059 865000000
866 2059 866000000
867 2058 867000000
868 2059 868000000
869 2059 869000000
870 2059 870000000
871 2058 871000000
872 2057 872000000
873 2057 873000000
874 2057 874000000
875 2056 875000000
876 2056 876000000
877 2056 877000000
878 2056 878000000
879 2056 879000000
880 2056 880000000
881 2056 881000000
882 2056 882000000
883 2056 883000000
884 2056 884000000
885 2055 885000000
886 2055 886000000
887 2054 887000000
888 2054 888000000
889 2054 889000000
890 2055 890000000
891 2056 891000000
892 2056 892000000
893 2057 893000000
894 2058 894000000
895 2058 895000000
896 2060 896000000
897 2060 897000000
898 2056 898000000
899 2054 899000000
900 2054 900000000
901 2049 901000000
902 2047 902000000
903 2047 903000000
904 2045 904000000
905 2045 905000000
906 2043 906000000
907 2041 907000000
908 2039 908000000
909 2037 909000000
910 2035 910000000
911 2034 911000000
912 2032 912000000
913 2030 913000000
914 2030 914000000
915 2030 915000000
916 2030 916000000
917 2032 917000000
918 2033 918000000
919 2033 919000000
920 2034 920000000
921 2035 921000000
922 2034 922000000
923 2033 923000000
924 2033 924000000
925 2033 925000000
926 2032 926000000
927 2032 927000000
928 2034 928000000
929 2032 929000000
930 2032 930000000
931 2032 931000000
932 2031 932000000
933 2031 933000000
934 2031 934000000
935 2031 935000000
936 2031 936000000
937 2030 937000000
938 2030 938000000
939 2029 939000000
940 2029 940000000
941 2029 941000000
942 2028 942000000
943 2026 943000000
944 2026 944000000
945 2026 945000000
946 2027 946000000
947 2027 947000000
948 2028 948000000
949 2027 949000000
950 2027 950000000
951 2029 951000000
952 2031 952000000
953 2032 953000000
954 2031 954000000
955 2031 955000000
956 2031 956000000
957 2031 957000000
958 2031 958000000
959 2032 959000000
960 2033 960000000
961 2033 961000000
962 2032 962000000
963 2031 963000000
964 2030 964000000
965 2030 965000000
966 2029 966000000
967 2030 967000000
968 2031 968000000
969 2031 969000000
970 2032 970000000
971 2032 971000000
972 2032 972000000
973 2032 973000000
974 2032 974000000
975 2032 975000000
976 2032 976000000
977 2032 977000000
978 2033 978000000
979 2031 979000000
980 2030 980000000
981 2030 981000000
982 2029 982000000
983 2029 983000000
984 2029 984000000
985 2029 985000000
986 2028 986000000
987 2025 987000000
988 2023 988000000
989 2021 989000000
990 2016 990000000
991 2013 991000000
992 2011 992000000
993 2008 993000000
994 2008 994000000
995 2006 995000000
996 2004 996000000
997 2003 997000000
998 2000 998000000
999 1995 999000000
1000 1995 1000000000
1001 1991 1001000000
1002 1989 1002000000
1003 1988 1003000000
1004 1990 1004000000
1005 1991 1005000000
1006 1997 1006000000
1007 2006 1007000000
1008 2008 1008000000
1009 2021 1009000000
1010 2027 1010000000
1011 2032 1011000000
1012 2048 1012000000
1013 2063 1013000000
1014 2069 1014000000
1015 2091 1015000000
1016 2098 1016000000
1017 2119 1017000000
1018 2144 1018000000
1019 2159 1019000000
1020 2187 1020000000
1021 2206 1021000000
1022 2218 1022000000
1023 2251 1023000000
1024 2267 1024000000
1025 2273 1025000000
1026 2301 1026000000
1027 2309 1027000000
1028 2319 1028000000
1029 2326 1029000000
1030 2332 1030000000
1031 2340 1031000000
1032 2339 1032000000
1033 2339 1033000000
1034 2324 1034000000
1035 2316 1035000000
1036 2311 1036000000
1037 2276 1037000000
1038 2261 1038000000
1039 2241 1039000000
1040 2193 1040000000
1041 2180 1041000000
1042 2156 1042000000
1043 2115 1043000000
1044 2104 1044000000
1045 2085 1045000000
1046 2064 1046000000
1047 2054 1047000000
1048 2030 1048000000
1049 2020 1049000000
1050 2012 1050000000
1051 1999 1051000000
1052 1993 1052000000
1053 1989 1053000000
1054 1985 1054000000
1055 1984 1055000000
1056 1985 1056000000
1057 1987 1057000000
1058 1987 1058000000
1059 1993 1059000000
1060 1995 1060000000
1061 1998 1061000000
1062 2001 1062000000
1063 2003 1063000000
1064 2005 1064000000
1065 2005 1065000000
1066 2005 1066000000
1067 2005 1067000000
1068 2005 1068000000
1069 2007 1069000000
1070 2008 1070000000
1071 2008 1071000000
1072 2008 1072000000
1073 2010 1073000000
1074 2011 1074000000
1075 2011 1075000000
1076 2012 1076000000
1077 2012 1077000000
1078 2012 1078000000
1079 2011 1079000000
1080 2011 1080000000
1081 2010 1081000000
1082 2009 1082000000
1083 2008 1083000000
1084 2008 1084000000
1085 2009 1085000000
1086 2010 1086000000
1087 2010 1087000000
1088 2010 1088000000
1089 2011 1089000000
1090 2011 1090000000
1091 2011 1091000000
1092 2012 1092000000
1093 2013 1093000000
1094 2014 1094000000
1095 2013 1095000000
1096 2011 1096000000
1097 2010 1097000000
1098 2009 1098000000
1099 2008 1099000000
1100 2007 1100000000
1101 2007 1101000000
1102 2007 1102000000
1103 2008 1103000000
1104 2008 1104000000
1105 2009 1105000000
1106 2009 1106000000
1107 2009 1107000000
1108 2009 1108000000
1109 2010 1109000000
1110 2010 1110000000
1111 2010 1111000000
1112 2010 1112000000
1113 2009 1113000000
1114 2009 1114000000
1115 2011 1115000000
1116 2012 1116000000
1117 2013 1117000000
1118 2014 1118000000
1119 2015 1119000000
1120 2015 1120000000
1121 2016 1121000000
1122 2016 1122000000
1123 2015 1123000000
1124 2014 1124000000
1125 2013 1125000000
1126 2013 1126000000
1127 2013 1127000000
1128 2014 1128000000
1129 2012 1129000000
1130 2012 1130000000
1131 2012 1131000000
1132 2012 1132000000
1133 2012 1133000000
1134 2012 1134000000
1135 2012 1135000000
1136 2012 1136000000
1137 2013 1137000000
1138 2013 1138000000
1139 2014 1139000000
1140 2014 1140000000
1141 2014 1141000000
1142 2014 1142000000
1143 2013 1143000000
1144 2013 1144000000
1145 2014 1145000000
1146 2014 1146000000
1147 2014 1147000000
1148 2014 1148000000
1149 2013 1149000000
1150 2013 1150000000
1151 2014 1151000000
1152 2014 1152000000
1153 2014 1153000000
1154 2013 1154000000
1155 2012 1155000000
1156 2011 1156000000
1157 2011 1157000000
1158 2011 1158000000
1159 2012 1159000000
1160 2012 1160000000
1161 2012 1161000000
1162 2012 1162000000
1163 2012 1163000000
1164 2013 1164000000
1165 2014 1165000000
1166 2014 1166000000
1167 2014 1167000000
1168 2015 1168000000
1169 2016 1169000000
1170 2016 1170000000
1171 2015 1171000000
1172 2015 1172000000
1173 2015 1173000000
1174 2015 1174000000
1175 2015 1175000000
1176 2018 1176000000
1177 2018 1177000000
1178 2019 1178000000
1179 2017 1179000000
1180 2017 1180000000
1181 2017 1181000000
1182 2017 1182000000
1183 2017 1183000000
1184 2017 1184000000
1185 2020 1185000000
1186 2020 1186000000
1187 2019 1187000000
1188 2019 1188000000
1189 2019 1189000000
1190 2019 1190000000
1191 2019 1191000000
1192 2019 1192000000
1193 2019 1193000000
1194 2019 1194000000
1195 2021 1195000000
1196 2018 1196000000
1197 2018 1197000000
1198 2018 1198000000
1199 2018 1199000000
1200 2018 1200000000
1201 2020 1201000000
1202 2020 1202000000
1203 2020 1203000000
1204 2020 1204000000
1205 2020 1205000000
1206 2020 1206000000
1207 2022 1207000000
1208 2022 1208000000
1209 2022 1209000000
1210 2021 1210000000
1211 2021 1211000000
1212 2022 1212000000
1213 2022 1213000000
1214 2023 1214000000
1215 2022 1215000000
1216 2021 1216000000
1217 2020 1217000000
1218 2021 1218000000
1219 2021 1219000000
1220 2021 1220000000
1221 2021 1221000000
1222 2021 1222000000
1223 2021 1223000000
1224 2021 1224000000
1225 2021 1225000000
1226 2021 1226000000
1227 2022 1227000000
1228 2024 1228000000
1229 2022 1229000000
1230 2021 1230000000
1231 2022 1231000000
1232 2021 1232000000
1233 2021 1233000000
1234 2020 1234000000
1235 2020 1235000000
1236 2020 1236000000
1237 2020 1237000000
1238 2020 1238000000
1239 2020 1239000000
1240 2020 1240000000
1241 2020 1241000000
1242 2020 1242000000
1243 2019 1243000000
1244 2019 1244000000
1245 2020 1245000000
1246 2019 1246000000
1247 2020 1247000000
1248 2020 1248000000
1249 2020 1249000000
1250 2020 1250000000
1251 2020 1251000000
1252 2020 1252000000
1253 2019 1253000000
1254 2020 1254000000
1255 2019 1255000000
1256 2019 1256000000
1257 2018 1257000000
1258 2017 1258000000
1259 2017 1259000000
1260 2016 1260000000
1261 2016 1261000000
1262 2017 1262000000
1263 2017 1263000000
1264 2020 1264000000
1265 2019 1265000000
1266 2018 1266000000
1267 2018 1267000000
1268 2018 1268000000
1269 2018 1269000000
1270 2018 1270000000
1271 2017 1271000000
1272 2017 1272000000
1273 2016 1273000000
1274 2017 1274000000
1275 2018 1275000000
1276 2017 1276000000
1277 2017 1277000000
1278 2017 1278000000
1279 2015 1279000000
1280 2014 1280000000
1281 2015 1281000000
1282 2015 1282000000
1283 2015 1283000000
1284 2014 1284000000
1285 2015 1285000000
1286 2014 1286000000
1287 2015 1287000000
1288 2016 1288000000
1289 2016 1289000000
1290 2015 1290000000
1291 2014 1291000000
1292 2013 1292000000
1293 2013 1293000000
1294 2013 1294000000
1295 2014 1295000000
1296 2014 1296000000
1297 2014 1297000000
1298 2014 1298000000
1299 2013 1299000000
1300 2013 1300000000
1301 2013 1301000000
1302 2013 1302000000
1303 2013 1303000000
1304 2013 1304000000
1305 2013 1305000000
1306 2013 1306000000
1307 2013 1307000000
1308 2013 1308000000
1309 2014 1309000000
1310 2013 1310000000
1311 2013 1311000000
1312 2013 1312000000
1313 2013 1313000000
1314 2013 1314000000
1315 2013 1315000000
1316 2013 1316000000
1317 2013 1317000000
1318 2015 1318000000
1319 2015 1319000000
1320 2015 1320000000
1321 2015 1321000000
1322 2015 1322000000
1323 2015 1323000000
1324 2015 1324000000
1325 2015 1325000000
1326 2016 1326000000
1327 2018 1327000000
1328 2019 1328000000
1329 2020 1329000000
1330 2022 1330000000
1331 2022 1331000000
1332 2022 1332000000
1333 2022 1333000000
1334 2025 1334000000
1335 2026 1335000000
1336 2028 1336000000
1337 2028 1337000000
1338 2029 1338000000
1339 2030 1339000000
1340 2032 1340000000
1341 2034 1341000000
1342 2035 1342000000
1343 2035 1343000000
1344 2035 1344000000
1345 2038 1345000000
1346 2039 1346000000
1347 2041 1347000000
1348 2042 1348000000
1349 2042 1349000000
1350 2042 1350000000
1351 2044 1351000000
1352 2046 1352000000
1353 2046 1353000000
1354 2048 1354000000
1355 2048 1355000000
1356 2047 1356000000
1357 2049 1357000000
1358 2049 1358000000
1359 2049 1359000000
1360 2049 1360000000
1361 2049 1361000000
1362 2050 1362000000
1363 2050 1363000000
1364 2050 1364000000
1365 2050 1365000000
1366 2050 1366000000
1367 2051 1367000000
1368 2051 1368000000
1369 2052 1369000000
1370 2051 1370000000
1371 2052 1371000000
1372 2052 1372000000
1373 2051 1373000000
1374 2052 1374000000
1375 2052 1375000000
1376 2053 1376000000
1377 2053 1377000000
1378 2055 1378000000
1379 2053 1379000000
1380 2052 1380000000
1381 2052 1381000000
1382 2053 1382000000
1383 2053 1383000000
1384 2053 1384000000
1385 2054 1385000000
1386 2053 1386000000
1387 2053 1387000000
1388 2053 1388000000
1389 2053 1389000000
1390 2053 1390000000
1391 2052 1391000000
1392 2052 1392000000
1393 2053 1393000000
1394 2054 1394000000
1395 2054 1395000000
1396 2052 1396000000
1397 2052 1397000000
1398 2052 1398000000
1399 2051 1399000000
1400 2051 1400000000
1401 2053 1401000000
1402 2055 1402000000
1403 2054 1403000000
1404 2054 1404000000
1405 2054 1405000000
1406 2051 1406000000
1407 2051 1407000000
1408 2051 1408000000
1409 2051 1409000000
1410 2051 1410000000
1411 2054 1411000000
1412 2052 1412000000
1413 2052 1413000000
1414 2052 1414000000
1415 2052 1415000000
1416 2052 1416000000
1417 2052 1417000000
1418 2053 1418000000
1419 2054 1419000000
1420 2053 1420000000
1421 2053 1421000000
1422 2053 1422000000
1423 2051 1423000000
1424 2050 1424000000
1425 2049 1425000000
1426 2051 1426000000
1427 2051 1427000000
1428 2053 1428000000
1429 2052 1429000000
1430 2052 1430000000
1431 2052 1431000000
1432 2052 1432000000
1433 2053 1433000000
1434 2053 1434000000
1435 2053 1435000000
1436 2053 1436000000
1437 2053 1437000000
1438 2054 1438000000
1439 2054 1439000000
1440 2054 1440000000
1441 2054 1441000000
1442 2054 1442000000
1443 2053 1443000000
1444 2053 1444000000
1445 2053 1445000000
1446 2053 1446000000
1447 2053 1447000000
1448 2054 1448000000
1449 2053 1449000000
1450 2052 1450000000
1451 2052 1451000000
1452 2052 1452000000
1453 2051 1453000000
1454 2053 1454000000
1455 2053 1455000000
1456 2051 1456000000
1457 2050 1457000000
1458 2049 1458000000
1459 2049 1459000000
1460 2050 1460000000
1461 2050 1461000000
1462 2050 1462000000
1463 2050 1463000000
1464 2052 1464000000
1465 2051 1465000000
1466 2050 1466000000
1467 2049 1467000000
1468 2051 1468000000
1469 2051 1469000000
1470 2051 1470000000
1471 2049 1471000000
1472 2049 1472000000
1473 2048 1473000000
1474 2048 1474000000
1475 2048 1475000000
1476 2048 1476000000
1477 2048 1477000000
1478 2048 1478000000
1479 2047 1479000000
1480 2047 1480000000
1481 2047 1481000000
1482 2047 1482000000
1483 2047 1483000000
1484 2046 1484000000
1485 2046 1485000000
1486 2046 1486000000
1487 2046 1487000000
1488 2046 1488000000
1489 2044 1489000000
1490 2044 1490000000
1491 2044 1491000000
1492 2045 1492000000
1493 2046 1493000000
1494 2046 1494000000
1495 2046 1495000000
1496 2045 1496000000
1497 2044 1497000000
1498 2045 1498000000
1499 2045 1499000000
1500 2045 1500000000
1501 2044 1501000000
1502 2044 1502000000
1503 2044 1503000000
1504 2044 1504000000
1505 2045 1505000000
1506 2044 1506000000
1507 2044 1507000000
1508 2044 1508000000
1509 2044 1509000000
1510 2044 1510000000
1511 2045 1511000000
1512 2045 1512000000
1513 2044 1513000000
1514 2045 1514000000
1515 2045 1515000000
1516 2045 1516000000
1517 2045 1517000000
1518 2045 1518000000
1519 2045 1519000000
1520 2045 1520000000
1521 2047 1521000000
1522 2047 1522000000
1523 2046 1523000000
1524 2045 1524000000
1525 2045 1525000000
1526 2045 1526000000
1527 2045 1527000000
1528 2045 1528000000
1529 2045 1529000000
1530 2045 1530000000
1531 2046 1531000000
1532 2044 1532000000
1533 2044 1533000000
1534 2044 1534000000
1535 2046 1535000000
1536 2046 1536000000
1537 2046 1537000000
1538 2046 1538000000
1539 2046 1539000000
1540 2046 1540000000
1541 2045 1541000000
1542 2045 1542000000
1543 2045 1543000000
1544 2045 1544000000
1545 2045 1545000000
1546 2044 1546000000
1547 2043 1547000000
1548 2043 1548000000
1549 2043 1549000000
1550 2043 1550000000
1551 2043 1551000000
1552 2043 1552000000
1553 2041 1553000000
1554 2041 1554000000
1555 2041 1555000000
1556 2040 1556000000
1557 2041 1557000000
1558 2041 1558000000
1559 2042 1559000000
1560 2042 1560000000
1561 2043 1561000000
1562 2043 1562000000
1563 2043 1563000000
1564 2043 1564000000
1565 2045 1565000000
1566 2045 1566000000
1567 2045 1567000000
1568 2045 1568000000
1569 2045 1569000000
1570 2045 1570000000
1571 2046 1571000000
1572 2046 1572000000
1573 2046 1573000000
1574 2046 1574000000
1575 2045 1575000000
1576 2045 1576000000
1577 2045 1577000000
1578 2046 1578000000
1579 2045 1579000000
1580 2045 1580000000
1581 2045 1581000000
1582 2045 1582000000
1583 2045 1583000000
1584 2045 1584000000
1585 2045 1585000000
1586 2044 1586000000
1587 2044 1587000000
1588 2044 1588000000
1589 2044 1589000000
1590 2045 1590000000
1591 2045 1591000000
1592 2044 1592000000
1593 2043 1593000000
1594 2043 1594000000
1595 2043 1595000000
1596 2044 1596000000
1597 2044 1597000000
1598 2045 1598000000
1599 2044 1599000000
1600 2044 1600000000
1601 2044 1601000000
1602 2044 1602000000
1603 2043 1603000000
1604 2044 1604000000
1605 2044 1605000000
1606 2044 1606000000
1607 2045 1607000000
1608 2045 1608000000
1609 2045 1609000000
1610 2044 1610000000
1611 2044 1611000000
1612 2045 1612000000
1613 2045 1613000000
1614 2045 1614000000
1615 2047 1615000000
1616 2047 1616000000
1617 2047 1617000000
1618 2048 1618000000
1619 2048 1619000000
1620 2048 1620000000
1621 2048 1621000000
1622 2048 1622000000
1623 2045 1623000000
1624 2045 1624000000
1625 2045 1625000000
1626 2046 1626000000
1627 2046 1627000000
1628 2046 1628000000
1629 2046 1629000000
1630 2045 1630000000
1631 2045 1631000000
1632 2046 1632000000
1633 2046 1633000000
1634 2045 1634000000
1635 2046 1635000000
1636 2046 1636000000
1637 2046 1637000000
1638 2046 1638000000
1639 2046 1639000000
1640 2047 1640000000
1641 2048 1641000000
1642 2050 1642000000
1643 2052 1643000000
1644 2054 1644000000
1645 2055 1645000000
1646 2055 1646000000
1647 2055 1647000000
1648 2056 1648000000
1649 2056 1649000000
1650 2057 1650000000
1651 2058 1651000000
1652 2059 1652000000
1653 2059 1653000000
1654 2060 1654000000
1655 2060 1655000000
1656 2060 1656000000
1657 2061 1657000000
1658 2061 1658000000
1659 2061 1659000000
1660 2061 1660000000
1661 2062 1661000000
1662 2062 1662000000
1663 2062 1663000000
1664 2064 1664000000
1665 2065 1665000000
1666 2065 1666000000
1667 2066 1667000000
1668 2067 1668000000
1669 2067 1669000000
1670 2067 1670000000
1671 2068 1671000000
1672 2068 1672000000
1673 2069 1673000000
1674 2070 1674000000
1675 2071 1675000000
1676 2072 1676000000
1677 2072 1677000000
1678 2072 1678000000
1679 2071 1679000000
1680 2070 1680000000
1681 2069 1681000000
1682 2069 1682000000
1683 2069 1683000000
1684 2070 1684000000
1685 2070 1685000000
1686 2070 1686000000
1687 2069 1687000000
1688 2068 1688000000
1689 2066 1689000000
1690 2067 1690000000
1691 2067 1691000000
1692 2067 1692000000
1693 2065 1693000000
1694 2065 1694000000
1695 2065 1695000000
1696 2065 1696000000
1697 2065 1697000000
1698 2063 1698000000
1699 2062 1699000000
1700 2062 1700000000
1701 2061 1701000000
1702 2061 1702000000
1703 2060 1703000000
1704 2061 1704000000
1705 2061 1705000000
1706 2060 1706000000
1707 2062 1707000000
1708 2062 1708000000
1709 2063 1709000000
1710 2066 1710000000
1711 2066 1711000000
1712 2067 1712000000
1713 2067 1713000000
1714 2070 1714000000
1715 2070 1715000000
1716 2070 1716000000
1717 2069 1717000000
1718 2066 1718000000
1719 2064 1719000000
1720 2064 1720000000
1721 2064 1721000000
1722 2064 1722000000
1723 2060 1723000000
1724 2058 1724000000
1725 2058 1725000000
1726 2055 1726000000
1727 2055 1727000000
1728 2052 1728000000
1729 2051 1729000000
1730 2049 1730000000
1731 2048 1731000000
1732 2047 1732000000
1733 2047 1733000000
1734 2046 1734000000
1735 2045 1735000000
1736 2044 1736000000
1737 2045 1737000000
1738 2045 1738000000
1739 2045 1739000000
1740 2045 1740000000
1741 2045 1741000000
1742 2045 1742000000
1743 2041 1743000000
1744 2040 1744000000
1745 2040 1745000000
1746 2037 1746000000
1747 2037 1747000000
1748 2036 1748000000
1749 2036 1749000000
1750 2036 1750000000
1751 2037 1751000000
1752 2038 1752000000
1753 2038 1753000000
1754 2040 1754000000
1755 2040 1755000000
1756 2040 1756000000
1757 2038 1757000000
1758 2038 1758000000
1759 2037 1759000000
1760 2037 1760000000
1761 2036 1761000000
1762 2036 1762000000
1763 2036 1763000000
1764 2036 1764000000
1765 2035 1765000000
1766 2035 1766000000
1767 2035 1767000000
1768 2035 1768000000
1769 2035 1769000000
1770 2034 1770000000
1771 2034 1771000000
1772 2034 1772000000
1773 2034 1773000000
1774 2034 1774000000
1775 2034 1775000000
1776 2034 1776000000
1777 2034 1777000000
1778 2034 1778000000
1779 2033 1779000000
1780 2033 1780000000
1781 2033 1781000000
1782 2033 1782000000
1783 2033 1783000000
1784 2033 1784000000
1785 2034 1785000000
1786 2034 1786000000
1787 2034 1787000000
1788 2034 1788000000
1789 2033 1789000000
1790 2035 1790000000
1791 2036 1791000000
1792 2035 1792000000
1793 2034 1793000000
1794 2034 1794000000
1795 2033 1795000000
1796 2032 1796000000
1797 2032 1797000000
1798 2031 1798000000
1799 2030 1799000000
1800 2030 1800000000
1801 2030 1801000000
1802 2030 1802000000
1803 2027 1803000000
1804 2023 1804000000
1805 2023 1805000000
1806 2018 1806000000
1807 2016 1807000000
1808 2013 1808000000
1809 2010 1809000000
1810 2009 1810000000
1811 2008 1811000000
1812 2005 1812000000
1813 2004 1813000000
1814 2002 1814000000
1815 1998 1815000000
1816 1996 1816000000
1817 1995 1817000000
1818 1992 1818000000
1819 1992 1819000000
1820 1992 1820000000
1821 1997 1821000000
1822 1997 1822000000
1823 2010 1823000000
1824 2016 1824000000
1825 2020 1825000000
1826 2044 1826000000
1827 2050 1827000000
1828 2058 1828000000
1829 2079 1829000000
1830 2087 1830000000
1831 2105 1831000000
1832 2131 1832000000
1833 2138 1833000000
1834 2176 1834000000
1835 2197 1835000000
1836 2212 1836000000
1837 2249 1837000000
1838 2268 1838000000
1839 2283 1839000000
1840 2310 1840000000
1841 2318 1841000000
1842 2332 1842000000
1843 2343 1843000000
1844 2350 1844000000
1845 2347 1845000000
1846 2339 1846000000
1847 2339 1847000000
1848 2304 1848000000
1849 2284 1849000000
1850 2278 1850000000
1851 2209 1851000000
1852 2185 1852000000
1853 2159 1853000000
1854 2104 1854000000
1855 2080 1855000000
1856 2060 1856000000
1857 2036 1857000000
1858 2021 1858000000
1859 2001 1859000000
1860 1993 1860000000
1861 1993 1861000000
1862 1984 1862000000
1863 1984 1863000000
1864 1986 1864000000
1865 1986 1865000000
1866 1998 1866000000
1867 2005 1867000000
1868 2009 1868000000
1869 2015 1869000000
1870 2026 1870000000
1871 2029 1871000000
1872 2029 1872000000
1873 2033 1873000000
1874 2031 1874000000
1875 2031 1875000000
1876 2027 1876000000
1877 2027 1877000000
1878 2017 1878000000
1879 2014 1879000000
1880 2012 1880000000
1881 2010 1881000000
1882 2010 1882000000
1883 2012 1883000000
1884 2015 1884000000
1885 2019 1885000000
1886 2019 1886000000
1887 2023 1887000000
1888 2023 1888000000
1889 2025 1889000000
1890 2027 1890000000
1891 2027 1891000000
1892 2025 1892000000
1893 2025 1893000000
1894 2021 1894000000
1895 2018 1895000000
1896 2018 1896000000
1897 2018 1897000000
1898 2016 1898000000
1899 2015 1899000000
1900 2015 1900000000
1901 2016 1901000000
1902 2018 1902000000
1903 2021 1903000000
1904 2022 1904000000
1905 2024 1905000000
1906 2024 1906000000
1907 2024 1907000000
1908 2024 1908000000
1909 2021 1909000000
1910 2020 1910000000
1911 2018 1911000000
1912 2017 1912000000
1913 2017 1913000000
1914 2018 1914000000
1915 2016 1915000000
1916 2016 1916000000
1917 2016 1917000000
1918 2018 1918000000
1919 2018 1919000000
1920 2020 1920000000
1921 2021 1921000000
1922 2021 1922000000
1923 2022 1923000000
1924 2022 1924000000
1925 2022 1925000000
1926 2019 1926000000
1927 2019 1927000000
1928 2018 1928000000
1929 2018 1929000000
1930 2017 1930000000
1931 2017 1931000000
1932 2016 1932000000
1933 2015 1933000000
1934 2016 1934000000
1935 2018 1935000000
1936 2019 1936000000
1937 2020 1937000000
1938 2020 1938000000
1939 2020 1939000000
1940 2020 1940000000
1941 2020 1941000000
1942 2020 1942000000
1943 2020 1943000000
1944 2021 1944000000
1945 2021 1945000000
1946 2020 1946000000
1947 2019 1947000000
1948 2019 1948000000
1949 2019 1949000000
1950 2019 1950000000
1951 2019 1951000000
1952 2020 1952000000
1953 2020 1953000000
1954 2020 1954000000
1955 2020 1955000000
1956 2020 1956000000
1957 2020 1957000000
1958 2020 1958000000
1959 2020 1959000000
1960 2020 1960000000
1961 2020 1961000000
1962 2021 1962000000
1963 2020 1963000000
1964 2021 1964000000
1965 2022 1965000000
1966 2022 1966000000
1967 2023 1967000000
1968 2025 1968000000
1969 2026 1969000000
1970 2026 1970000000
1971 2026 1971000000
1972 2026 1972000000
1973 2025 1973000000
1974 2025 1974000000
1975 2025 1975000000
1976 2025 1976000000
1977 2025 1977000000
1978 2027 1978000000
1979 2028 1979000000
1980 2029 1980000000
1981 2028 1981000000
1982 2026 1982000000
1983 2025 1983000000
1984 2026 1984000000
1985 2026 1985000000
1986 2026 1986000000
1987 2027 1987000000
1988 2028 1988000000
1989 2028 1989000000
1990 2027 1990000000
1991 2026 1991000000
1992 2026 1992000000
1993 2026 1993000000
1994 2026 1994000000
1995 2026 1995000000
1996 2026 1996000000
1997 2026 1997000000
1998 2025 1998000000
1999 2025 1999000000
2000 2024 2000000000
2001 2024 2001000000
2002 2024 2002000000
2003 2023 2003000000
2004 2023 2004000000
2005 2023 2005000000
2006 2023 2006000000
2007 2023 2007000000
2008 2023 2008000000
2009 2023 2009000000
2010 2024 2010000000
2011 2024 2011000000
2012 2024 2012000000
2013 2024 2013000000
2014 2024 2014000000
2015 2024 2015000000
2016 2024 2016000000
2017 2025 2017000000
2018 2025 2018000000
2019 2025 2019000000
2020 2025 2020000000
2021 2025 2021000000
2022 2025 2022000000
2023 2026 2023000000
2024 2027 2024000000
2025 2027 2025000000
2026 2027 2026000000
2027 2027 2027000000
2028 2029 2028000000
2029 2028 2029000000
2030 2028 2030000000
2031 2028 2031000000
2032 2027 2032000000
2033 2027 2033000000
2034 2027 2034000000
2035 2029 2035000000
2036 2029 2036000000
2037 2029 2037000000
2038 2029 2038000000
2039 2028 2039000000
2040 2029 2040000000
2041 2029 2041000000
2042 2029 2042000000
2043 2029 2043000000
2044 2029 2044000000
2045 2029 2045000000
2046 2029 2046000000
2047 2029 2047000000
2048 2032 2048000000
2049 2032 2049000000
2050 2032 2050000000
2051 2034 2051000000
2052 2035 2052000000
2053 2035 2053000000
2054 2034 2054000000
2055 2032 2055000000
2056 2031 2056000000
2057 2031 2057000000
2058 2031 2058000000
2059 2032 2059000000
2060 2032 2060000000
2061 2032 2061000000
2062 2033 2062000000
2063 2032 2063000000
2064 2033 2064000000
2065 2031 2065000000
2066 2030 2066000000
2067 2030 2067000000
2068 2031 2068000000
2069 2032 2069000000
2070 2032 2070000000
2071 2032 2071000000
2072 2031 2072000000
2073 2029 2073000000
2074 2029 2074000000
2075 2029 2075000000
2076 2028 2076000000
2077 2028 2077000000
2078 2028 2078000000
2079 2028 2079000000
2080 2028 2080000000
2081 2028 2081000000
2082 2028 2082000000
2083 2028 2083000000
2084 2029 2084000000
2085 2028 2085000000
2086 2028 2086000000
2087 2028 2087000000
2088 2028 2088000000
2089 2028 2089000000
2090 2028 2090000000
2091 2028 2091000000
2092 2028 2092000000
2093 2029 2093000000
2094 2029 2094000000
2095 2029 2095000000
2096 2026 2096000000
2097 2026 2097000000
2098 2026 2098000000
2099 2026 2099000000
2100 2026 2100000000
2101 2028 2101000000
2102 2028 2102000000
2103 2026 2103000000
2104 2028 2104000000
2105 2028 2105000000
2106 2028 2106000000
2107 2028 2107000000
2108 2028 2108000000
2109 2027 2109000000
2110 2027 2110000000
2111 2027 2111000000
2112 2027 2112000000
2113 2027 2113000000
2114 2030 2114000000
2115 2030 2115000000
2116 2030 2116000000
2117 2030 2117000000
2118 2030 2118000000
2119 2030 2119000000
2120 2029 2120000000
2121 2030 2121000000
2122 2030 2122000000
2123 2031 2123000000
2124 2033 2124000000
2125 2034 2125000000
2126 2034 2126000000
2127 2034 2127000000
2128 2035 2128000000
2129 2036 2129000000
2130 2036 2130000000
2131 2039 2131000000
2132 2040 2132000000
2133 2041 2133000000
2134 2043 2134000000
2135 2044 2135000000
2136 2045 2136000000
2137 2047 2137000000
2138 2048 2138000000
2139 2048 2139000000
2140 2048 2140000000
2141 2048 2141000000
2142 2050 2142000000
2143 2050 2143000000
2144 2051 2144000000
2145 2052 2145000000
2146 2052 2146000000
2147 2052 2147000000
2148 2052 2148000000
2149 2052 2149000000
2150 2052 2150000000
2151 2053 2151000000
2152 2054 2152000000
2153 2054 2153000000
2154 2054 2154000000
2155 2054 2155000000
2156 2055 2156000000
2157 2056 2157000000
2158 2056 2158000000
2159 2056 2159000000
2160 2056 2160000000
2161 2056 2161000000
2162 2057 2162000000
2163 2057 2163000000
2164 2057 2164000000
2165 2058 2165000000
2166 2058 2166000000
2167 2058 2167000000
2168 2059 2168000000
2169 2059 2169000000
2170 2059 2170000000
2171 2059 2171000000
2172 2059 2172000000
2173 2059 2173000000
2174 2059 2174000000
2175 2059 2175000000
2176 2058 2176000000
2177 2058 2177000000
2178 2059 2178000000
2179 2058 2179000000
2180 2058 2180000000
2181 2058 2181000000
2182 2058 2182000000
2183 2058 2183000000
2184 2058 2184000000
2185 2058 2185000000
2186 2058 2186000000
2187 2056 2187000000
2188 2056 2188000000
2189 2055 2189000000
2190 2056 2190000000
2191 2057 2191000000
2192 2057 2192000000
2193 2057 2193000000
2194 2057 2194000000
2195 2057 2195000000
2196 2056 2196000000
2197 2055 2197000000
2198 2056 2198000000
2199 2056 2199000000
2200 2056 2200000000
2201 2055 2201000000
2202 2054 2202000000
2203 2053 2203000000
2204 2055 2204000000
2205 2055 2205000000
2206 2055 2206000000
2207 2055 2207000000
2208 2055 2208000000
2209 2055 2209000000
2210 2055 2210000000
2211 2056 2211000000
2212 2055 2212000000
2213 2054 2213000000
2214 2054 2214000000
2215 2054 2215000000
2216 2054 2216000000
2217 2055 2217000000
2218 2056 2218000000
2219 2057 2219000000
2220 2057 2220000000
2221 2057 2221000000
2222 2057 2222000000
2223 2055 2223000000
2224 2056 2224000000
2225 2056 2225000000
2226 2056 2226000000
2227 2055 2227000000
2228 2055 2228000000
2229 2053 2229000000
2230 2053 2230000000
2231 2053 2231000000
2232 2053 2232000000
2233 2053 2233000000
2234 2053 2234000000
2235 2054 2235000000
2236 2054 2236000000
2237 2053 2237000000
2238 2053 2238000000
2239 2053 2239000000
2240 2051 2240000000
2241 2051 2241000000
2242 2051 2242000000
2243 2050 2243000000
2244 2050 2244000000
2245 2050 2245000000
2246 2048 2246000000
2247 2048 2247000000
2248 2048 2248000000
2249 2048 2249000000
2250 2048 2250000000
2251 2048 2251000000
2252 2049 2252000000
2253 2048 2253000000
2254 2048 2254000000
2255 2048 2255000000
2256 2047 2256000000
2257 2047 2257000000
2258 2047 2258000000
2259 2048 2259000000
2260 2047 2260000000
2261 2047 2261000000
2262 2048 2262000000
2263 2048 2263000000
2264 2049 2264000000
2265 2047 2265000000
2266 2046 2266000000
2267 2045 2267000000
2268 2046 2268000000
2269 2046 2269000000
2270 2046 2270000000
2271 2045 2271000000
2272 2045 2272000000
2273 2043 2273000000
2274 2043 2274000000
2275 2042 2275000000
2276 2042 2276000000
2277 2042 2277000000
2278 2042 2278000000
2279 2043 2279000000
2280 2043 2280000000
2281 2045 2281000000
2282 2044 2282000000
2283 2043 2283000000
2284 2044 2284000000
2285 2044 2285000000
2286 2044 2286000000
2287 2044 2287000000
2288 2044 2288000000
2289 2044 2289000000
2290 2045 2290000000
2291 2046 2291000000
2292 2046 2292000000
2293 2044 2293000000
2294 2044 2294000000
2295 2044 2295000000
2296 2045 2296000000
2297 2045 2297000000
2298 2045 2298000000
2299 2044 2299000000
2300 2044 2300000000
2301 2043 2301000000
2302 2043 2302000000
2303 2042 2303000000
2304 2044 2304000000
2305 2044 2305000000
2306 2044 2306000000
2307 2043 2307000000
2308 2043 2308000000
2309 2043 2309000000
2310 2043 2310000000
2311 2043 2311000000
2312 2043 2312000000
2313 2042 2313000000
2314 2042 2314000000
2315 2041 2315000000
2316 2041 2316000000
2317 2040 2317000000
2318 2042 2318000000
2319 2042 2319000000
2320 2041 2320000000
2321 2042 2321000000
2322 2042 2322000000
2323 2041 2323000000
2324 2041 2324000000
2325 2040 2325000000
2326 2040 2326000000
2327 2040 2327000000
2328 2042 2328000000
2329 2042 2329000000
2330 2042 2330000000
2331 2042 2331000000
2332 2041 2332000000
2333 2041 2333000000
2334 2041 2334000000
2335 2042 2335000000
2336 2042 2336000000
2337 2042 2337000000
2338 2042 2338000000
2339 2041 2339000000
2340 2042 2340000000
2341 2043 2341000000
2342 2043 2342000000
2343 2043 2343000000
2344 2043 2344000000
2345 2045 2345000000
2346 2045 2346000000
2347 2045 2347000000
2348 2046 2348000000
2349 2044 2349000000
2350 2044 2350000000
2351 2044 2351000000
2352 2044 2352000000
2353 2044 2353000000
2354 2046 2354000000
2355 2047 2355000000
2356 2047 2356000000
2357 2046 2357000000
2358 2046 2358000000
2359 2045 2359000000
2360 2045 2360000000
2361 2045 2361000000
2362 2046 2362000000
2363 2045 2363000000
2364 2046 2364000000
2365 2045 2365000000
2366 2045 2366000000
2367 2045 2367000000
2368 2046 2368000000
2369 2046 2369000000
2370 2045 2370000000
2371 2045 2371000000
2372 2045 2372000000
2373 2045 2373000000
2374 2045 2374000000
2375 2043 2375000000
2376 2043 2376000000
2377 2043 2377000000
2378 2044 2378000000
2379 2042 2379000000
2380 2041 2380000000
2381 2041 2381000000
2382 2041 2382000000
2383 2040 2383000000
2384 2043 2384000000
2385 2044 2385000000
2386 2046 2386000000
2387 2045 2387000000
2388 2044 2388000000
2389 2042 2389000000
2390 2042 2390000000
2391 2042 2391000000
2392 2043 2392000000
2393 2042 2393000000
2394 2042 2394000000
2395 2043 2395000000
2396 2043 2396000000
2397 2043 2397000000
2398 2045 2398000000
2399 2044 2399000000
2400 2044 2400000000
2401 2044 2401000000
2402 2045 2402000000
2403 2044 2403000000
2404 2046 2404000000
2405 2046 2405000000
2406 2045 2406000000
2407 2044 2407000000
2408 2044 2408000000
2409 2045 2409000000
2410 2045 2410000000
2411 2046 2411000000
2412 2046 2412000000
2413 2048 2413000000
2414 2048 2414000000
2415 2048 2415000000
2416 2048 2416000000
2417 2049 2417000000
2418 2049 2418000000
2419 2049 2419000000
2420 2052 2420000000
2421 2053 2421000000
2422 2054 2422000000
2423 2054 2423000000
2424 2054 2424000000
2425 2054 2425000000
2426 2054 2426000000
2427 2056 2427000000
2428 2057 2428000000
2429 2057 2429000000
2430 2057 2430000000
2431 2057 2431000000
2432 2058 2432000000
2433 2059 2433000000
2434 2060 2434000000
2435 2061 2435000000
2436 2061 2436000000
2437 2061 2437000000
2438 2061 2438000000
2439 2060 2439000000
2440 2061 2440000000
2441 2061 2441000000
2442 2062 2442000000
2443 2062 2443000000
2444 2062 2444000000
2445 2063 2445000000
2446 2063 2446000000
2447 2063 2447000000
2448 2065 2448000000
2449 2065 2449000000
2450 2065 2450000000
2451 2066 2451000000
2452 2066 2452000000
2453 2066 2453000000
2454 2067 2454000000
2455 2067 2455000000
2456 2067 2456000000
2457 2068 2457000000
2458 2069 2458000000
2459 2068 2459000000
2460 2067 2460000000
2461 2067 2461000000
2462 2067 2462000000
2463 2067 2463000000
2464 2067 2464000000
2465 2066 2465000000
2466 2066 2466000000
2467 2065 2467000000
2468 2065 2468000000
2469 2064 2469000000
2470 2063 2470000000
2471 2064 2471000000
2472 2064 2472000000
2473 2063 2473000000
2474 2063 2474000000
2475 2062 2475000000
2476 2062 2476000000
2477 2062 2477000000
2478 2062 2478000000
2479 2062 2479000000
2480 2062 2480000000
2481 2063 2481000000
2482 2063 2482000000
2483 2064 2483000000
2484 2064 2484000000
2485 2064 2485000000
2486 2064 2486000000
2487 2061 2487000000
2488 2061 2488000000
2489 2061 2489000000
2490 2062 2490000000
2491 2062 2491000000
2492 2063 2492000000
2493 2064 2493000000
2494 2065 2494000000
2495 2067 2495000000
2496 2068 2496000000
2497 2069 2497000000
2498 2069 2498000000
2499 2067 2499000000
2500 2066 2500000000
2501 2064 2501000000
2502 2063 2502000000
2503 2061 2503000000
2504 2057 2504000000
2505 2057 2505000000
2506 2055 2506000000
2507 2055 2507000000
2508 2053 2508000000
2509 2051 2509000000
2510 2048 2510000000
2511 2046 2511000000
2512 2043 2512000000
2513 2042 2513000000
2514 2041 2514000000
2515 2038 2515000000
2516 2037 2516000000
2517 2036 2517000000
2518 2036 2518000000
2519 2036 2519000000
2520 2035 2520000000
2521 2036 2521000000
2522 2036 2522000000
2523 2036 2523000000
2524 2036 2524000000
2525 2037 2525000000
2526 2036 2526000000
2527 2036 2527000000
2528 2036 2528000000
2529 2035 2529000000
2530 2034 2530000000
2531 2035 2531000000
2532 2035 2532000000
2533 2035 2533000000
2534 2035 2534000000
2535 2035 2535000000
2536 2035 2536000000
2537 2034 2537000000
2538 2035 2538000000
2539 2035 2539000000
2540 2034 2540000000
2541 2034 2541000000
2542 2034 2542000000
2543 2034 2543000000
2544 2033 2544000000
2545 2033 2545000000
2546 2033 2546000000
2547 2033 2547000000
2548 2032 2548000000
2549 2032 2549000000
2550 2032 2550000000
2551 2033 2551000000
2552 2033 2552000000
2553 2033 2553000000
2554 2035 2554000000
2555 2036 2555000000
2556 2036 2556000000
2557 2036 2557000000
2558 2036 2558000000
2559 2035 2559000000
2560 2034 2560000000
2561 2033 2561000000
2562 2034 2562000000
2563 2034 2563000000
2564 2035 2564000000
2565 2032 2565000000
2566 2031 2566000000
2567 2031 2567000000
2568 2032 2568000000
2569 2032 2569000000
2570 2032 2570000000
2571 2032 2571000000
2572 2032 2572000000
2573 2031 2573000000
2574 2032 2574000000
2575 2032 2575000000
2576 2031 2576000000
2577 2030 2577000000
2578 2031 2578000000
2579 2029 2579000000
2580 2028 2580000000
2581 2028 2581000000
2582 2024 2582000000
2583 2023 2583000000
2584 2021 2584000000
2585 2019 2585000000
2586 2019 2586000000
2587 2013 2587000000
2588 2011 2588000000
2589 2008 2589000000
2590 2007 2590000000
2591 2007 2591000000
2592 2004 2592000000
2593 2003 2593000000
2594 2002 2594000000
2595 2001 2595000000
2596 2000 2596000000
2597 2000 2597000000
2598 1995 2598000000
2599 1992 2599000000
2600 1990 2600000000
2601 1984 2601000000
2602 1981 2602000000
2603 1980 2603000000
2604 1981 2604000000
2605 1981 2605000000
2606 1983 2606000000
2607 1988 2607000000
2608 1988 2608000000
2609 1995 2609000000
2610 1999 2610000000
2611 2002 2611000000
2612 2018 2612000000
2613 2025 2613000000
2614 2032 2614000000
2615 2046 2615000000
2616 2053 2616000000
2617 2069 2617000000
2618 2086 2618000000
2619 2094 2619000000
2620 2120 2620000000
2621 2136 2621000000
2622 2142 2622000000
2623 2182 2623000000
2624 2199 2624000000
2625 2205 2625000000
2626 2242 2626000000
2627 2259 2627000000
2628 2272 2628000000
2629 2295 2629000000
2630 2305 2630000000
2631 2320 2631000000
2632 2325 2632000000
2633 2332 2633000000
2634 2333 2634000000
2635 2330 2635000000
2636 2329 2636000000
2637 2296 2637000000
2638 2277 2638000000
2639 2259 2639000000
2640 2206 2640000000
2641 2183 2641000000
2642 2153 2642000000
2643 2108 2643000000
2644 2085 2644000000
2645 2057 2645000000
2646 2037 2646000000
2647 2016 2647000000
2648 2004 2648000000
2649 1997 2649000000
2650 1997 2650000000
2651 1991 2651000000
2652 1991 2652000000
2653 1992 2653000000
2654 1999 2654000000
2655 2005 2655000000
2656 2012 2656000000
2657 2016 2657000000
2658 2023 2658000000
2659 2023 2659000000
2660 2023 2660000000
2661 2034 2661000000
2662 2035 2662000000
2663 2035 2663000000
2664 2032 2664000000
2665 2029 2665000000
2666 2029 2666000000
2667 2023 2667000000
2668 2023 2668000000
2669 2023 2669000000
2670 2018 2670000000
2671 2019 2671000000
2672 2021 2672000000
2673 2022 2673000000
2674 2022 2674000000
2675 2025 2675000000
2676 2026 2676000000
2677 2026 2677000000
2678 2031 2678000000
2679 2031 2679000000
2680 2031 2680000000
2681 2030 2681000000
2682 2030 2682000000
2683 2026 2683000000
2684 2025 2684000000
2685 2025 2685000000
2686 2025 2686000000
2687 2022 2687000000
2688 2022 2688000000
2689 2022 2689000000
2690 2023 2690000000
2691 2025 2691000000
2692 2027 2692000000
2693 2027 2693000000
2694 2027 2694000000
2695 2029 2695000000
2696 2028 2696000000
2697 2028 2697000000
2698 2028 2698000000
2699 2028 2699000000
2700 2028 2700000000
2701 2025 2701000000
2702 2025 2702000000
2703 2023 2703000000
2704 2024 2704000000
2705 2025 2705000000
2706 2025 2706000000
2707 2024 2707000000
2708 2024 2708000000
2709 2024 2709000000
2710 2024 2710000000
2711 2024 2711000000
2712 2027 2712000000
2713 2028 2713000000
2714 2028 2714000000
2715 2028 2715000000
2716 2029 2716000000
2717 2028 2717000000
2718 2027 2718000000
2719 2025 2719000000
2720 2026 2720000000
2721 2027 2721000000
2722 2028 2722000000
2723 2028 2723000000
2724 2028 2724000000
2725 2028 2725000000
2726 2030 2726000000
2727 2030 2727000000
2728 2031 2728000000
2729 2031 2729000000
2730 2031 2730000000
2731 2032 2731000000
2732 2032 2732000000
2733 2031 2733000000
2734 2031 2734000000
2735 2031 2735000000
2736 2029 2736000000
2737 2029 2737000000
2738 2029 2738000000
2739 2028 2739000000
2740 2028 2740000000
2741 2028 2741000000
2742 2028 2742000000
2743 2028 2743000000
2744 2028 2744000000
2745 2030 2745000000
2746 2029 2746000000
2747 2029 2747000000
2748 2029 2748000000
2749 2030 2749000000
2750 2030 2750000000
2751 2030 2751000000
2752 2030 2752000000
2753 2030 2753000000
2754 2030 2754000000
2755 2030 2755000000
2756 2030 2756000000
2757 2031 2757000000
2758 2032 2758000000
2759 2033 2759000000
2760 2033 2760000000
2761 2034 2761000000
2762 2034 2762000000
2763 2034 2763000000
2764 2035 2764000000
2765 2034 2765000000
2766 2033 2766000000
2767 2033 2767000000
2768 2034 2768000000
2769 2034 2769000000
2770 2034 2770000000
2771 2034 2771000000
2772 2034 2772000000
2773 2034 2773000000
2774 2034 2774000000
2775 2035 2775000000
2776 2034 2776000000
2777 2033 2777000000
2778 2034 2778000000
2779 2033 2779000000
2780 2033 2780000000
2781 2033 2781000000
2782 2033 2782000000
2783 2034 2783000000
2784 2035 2784000000
2785 2035 2785000000
2786 2035 2786000000
2787 2036 2787000000
2788 2036 2788000000
2789 2036 2789000000
2790 2036 2790000000
2791 2036 2791000000
2792 2036 2792000000
2793 2035 2793000000
2794 2034 2794000000
2795 2035 2795000000
2796 2034 2796000000
2797 2034 2797000000
2798 2035 2798000000
2799 2035 2799000000
2800 2036 2800000000
2801 2036 2801000000
2802 2036 2802000000
2803 2034 2803000000
2804 2037 2804000000
2805 2038 2805000000
2806 2038 2806000000
2807 2037 2807000000
2808 2036 2808000000
2809 2036 2809000000
2810 2035 2810000000
2811 2035 2811000000
2812 2035 2812000000
2813 2035 2813000000
2814 2036 2814000000
2815 2038 2815000000
2816 2038 2816000000
2817 2038 2817000000
2818 2038 2818000000
2819 2038 2819000000
2820 2036 2820000000
2821 2036 2821000000
2822 2036 2822000000
2823 2036 2823000000
2824 2036 2824000000
2825 2036 2825000000
2826 2035 2826000000
2827 2035 2827000000
2828 2036 2828000000
2829 2037 2829000000
2830 2038 2830000000
2831 2039 2831000000
2832 2040 2832000000
2833 2040 2833000000
2834 2039 2834000000
2835 2039 2835000000
2836 2039 2836000000
2837 2039 2837000000
2838 2038 2838000000
2839 2038 2839000000
2840 2038 2840000000
2841 2038 2841000000
2842 2039 2842000000
2843 2039 2843000000
2844 2038 2844000000
2845 2039 2845000000
2846 2038 2846000000
2847 2037 2847000000
2848 2037 2848000000
2849 2037 2849000000
2850 2037 2850000000
2851 2039 2851000000
2852 2040 2852000000
2853 2040 2853000000
2854 2039 2854000000
2855 2039 2855000000
2856 2039 2856000000
2857 2038 2857000000
2858 2039 2858000000
2859 2038 2859000000
2860 2038 2860000000
2861 2038 2861000000
2862 2038 2862000000
2863 2038 2863000000
2864 2038 2864000000
2865 2038 2865000000
2866 2037 2866000000
2867 2037 2867000000
2868 2038 2868000000
2869 2038 2869000000
2870 2038 2870000000
2871 2039 2871000000
2872 2040 2872000000
2873 2038 2873000000
2874 2037 2874000000
2875 2037 2875000000
2876 2037 2876000000
2877 2037 2877000000
2878 2040 2878000000
2879 2039 2879000000
2880 2039 2880000000
2881 2039 2881000000
2882 2040 2882000000
2883 2041 2883000000
2884 2041 2884000000
2885 2039 2885000000
2886 2039 2886000000
2887 2040 2887000000
2888 2040 2888000000
2889 2041 2889000000
2890 2040 2890000000
2891 2040 2891000000
2892 2041 2892000000
2893 2039 2893000000
2894 2039 2894000000
2895 2040 2895000000
2896 2039 2896000000
2897 2038 2897000000
2898 2039 2898000000
2899 2039 2899000000
2900 2039 2900000000
2901 2039 2901000000
2902 2039 2902000000
2903 2037 2903000000
2904 2038 2904000000
2905 2039 2905000000
2906 2039 2906000000
2907 2039 2907000000
2908 2039 2908000000
2909 2042 2909000000
2910 2042 2910000000
2911 2042 2911000000
2912 2043 2912000000
2913 2043 2913000000
2914 2043 2914000000
2915 2045 2915000000
2916 2047 2916000000
2917 2047 2917000000
2918 2049 2918000000
2919 2049 2919000000
2920 2050 2920000000
2921 2051 2921000000
2922 2051 2922000000
2923 2051 2923000000
2924 2051 2924000000
2925 2051 2925000000
2926 2054 2926000000
2927 2054 2927000000
2928 2055 2928000000
2929 2055 2929000000
2930 2055 2930000000
2931 2056 2931000000
2932 2057 2932000000
2933 2057 2933000000
2934 2057 2934000000
2935 2058 2935000000
2936 2059 2936000000
2937 2058 2937000000
2938 2059 2938000000
2939 2060 2939000000
2940 2058 2940000000
2941 2058 2941000000
2942 2058 2942000000
2943 2060 2943000000
2944 2060 2944000000
2945 2062 2945000000
2946 2063 2946000000
2947 2063 2947000000
2948 2064 2948000000
2949 2064 2949000000
2950 2064 2950000000
2951 2063 2951000000
2952 2063 2952000000
2953 2062 2953000000
2954 2063 2954000000
2955 2064 2955000000
2956 2064 2956000000
2957 2062 2957000000
2958 2062 2958000000
2959 2062 2959000000
2960 2062 2960000000
2961 2062 2961000000
2962 2062 2962000000
2963 2062 2963000000
2964 2062 2964000000
2965 2062 2965000000
2966 2060 2966000000
2967 2060 2967000000
2968 2060 2968000000
2969 2060 2969000000
2970 2059 2970000000
2971 2060 2971000000
2972 2060 2972000000
2973 2060 2973000000
2974 2059 2974000000
2975 2059 2975000000
2976 2059 2976000000
2977 2059 2977000000
2978 2060 2978000000
2979 2059 2979000000
2980 2058 2980000000
2981 2058 2981000000
2982 2059 2982000000
2983 2059 2983000000
2984 2060 2984000000
2985 2060 2985000000
2986 2060 2986000000
2987 2059 2987000000
2988 2059 2988000000
2989 2059 2989000000
2990 2059 2990000000
2991 2061 2991000000
2992 2061 2992000000
2993 2060 2993000000
2994 2059 2994000000
2995 2060 2995000000
2996 2059 2996000000
2997 2058 2997000000
2998 2059 2998000000
2999 2059 2999000000
3000 2058 3000000000
3001 2058 3001000000
3002 2058 3002000000
3003 2058 3003000000
3004 2058 3004000000
3005 2058 3005000000
3006 2055 3006000000
3007 2056 3007000000
3008 2058 3008000000
3009 2058 3009000000
3010 2057 3010000000
3011 2057 3011000000
3012 2057 3012000000
3013 2057 3013000000
3014 2057 3014000000
3015 2058 3015000000
3016 2058 3016000000
3017 2057 3017000000
3018 2057 3018000000
3019 2057 3019000000
3020 2056 3020000000
3021 2055 3021000000
3022 2054 3022000000
3023 2054 3023000000
3024 2054 3024000000
3025 2054 3025000000
3026 2053 3026000000
3027 2053 3027000000
3028 2053 3028000000
3029 2054 3029000000
3030 2054 3030000000
3031 2055 3031000000
3032 2055 3032000000
3033 2053 3033000000
3034 2053 3034000000
3035 2055 3035000000
3036 2055 3036000000
3037 2055 3037000000
3038 2054 3038000000
3039 2054 3039000000
3040 2053 3040000000
3041 2052 3041000000
3042 2052 3042000000
3043 2051 3043000000
3044 2050 3044000000
3045 2050 3045000000
3046 2049 3046000000
3047 2048 3047000000
3048 2049 3048000000
3049 2049 3049000000
3050 2049 3050000000
3051 2049 3051000000
3052 2049 3052000000
3053 2049 3053000000
3054 2049 3054000000
3055 2048 3055000000
3056 2048 3056000000
3057 2049 3057000000
3058 2049 3058000000
3059 2051 3059000000
3060 2050 3060000000
3061 2050 3061000000
3062 2050 3062000000
3063 2050 3063000000
3064 2049 3064000000
3065 2049 3065000000
3066 2049 3066000000
3067 2049 3067000000
3068 2050 3068000000
3069 2050 3069000000
3070 2050 3070000000
3071 2049 3071000000
3072 2048 3072000000
3073 2048 3073000000
3074 2048 3074000000
3075 2049 3075000000
3076 2049 3076000000
3077 2049 3077000000
3078 2049 3078000000
3079 2048 3079000000
3080 2047 3080000000
3081 2047 3081000000
3082 2047 3082000000
3083 2047 3083000000
3084 2046 3084000000
3085 2046 3085000000
3086 2046 3086000000
3087 2045 3087000000
3088 2045 3088000000
3089 2045 3089000000
3090 2045 3090000000
3091 2045 3091000000
3092 2046 3092000000
3093 2045 3093000000
3094 2045 3094000000
3095 2045 3095000000
3096 2045 3096000000
3097 2045 3097000000
3098 2045 3098000000
3099 2045 3099000000
3100 2045 3100000000
3101 2045 3101000000
3102 2045 3102000000
3103 2044 3103000000
3104 2044 3104000000
3105 2044 3105000000
3106 2044 3106000000
3107 2044 3107000000
3108 2044 3108000000
3109 2046 3109000000
3110 2046 3110000000
3111 2048 3111000000
3112 2048 3112000000
3113 2048 3113000000
3114 2048 3114000000
3115 2048 3115000000
3116 2047 3116000000
3117 2046 3117000000
3118 2046 3118000000
3119 2046 3119000000
3120 2047 3120000000
3121 2048 3121000000
3122 2049 3122000000
3123 2046 3123000000
3124 2045 3124000000
3125 2045 3125000000
3126 2045 3126000000
3127 2045 3127000000
3128 2046 3128000000
3129 2045 3129000000
3130 2045 3130000000
3131 2044 3131000000
3132 2042 3132000000
3133 2042 3133000000
3134 2041 3134000000
3135 2041 3135000000
3136 2041 3136000000
3137 2041 3137000000
3138 2042 3138000000
3139 2042 3139000000
3140 2042 3140000000
3141 2042 3141000000
3142 2043 3142000000
3143 2042 3143000000
3144 2042 3144000000
3145 2043 3145000000
3146 2043 3146000000
3147 2043 3147000000
3148 2043 3148000000
3149 2045 3149000000
3150 2045 3150000000
3151 2045 3151000000
3152 2046 3152000000
3153 2046 3153000000
3154 2045 3154000000
3155 2045 3155000000
3156 2044 3156000000
3157 2044 3157000000
3158 2043 3158000000
3159 2043 3159000000
3160 2043 3160000000
3161 2044 3161000000
3162 2042 3162000000
3163 2040 3163000000
3164 2038 3164000000
3165 2041 3165000000
3166 2042 3166000000
3167 2042 3167000000
3168 2042 3168000000
3169 2042 3169000000
3170 2041 3170000000
3171 2042 3171000000
3172 2042 3172000000
3173 2042 3173000000
3174 2042 3174000000
3175 2042 3175000000
3176 2043 3176000000
3177 2043 3177000000
3178 2044 3178000000
3179 2044 3179000000
3180 2044 3180000000
3181 2045 3181000000
3182 2046 3182000000
3183 2046 3183000000
3184 2047 3184000000
3185 2048 3185000000
3186 2048 3186000000
3187 2048 3187000000
3188 2047 3188000000
3189 2046 3189000000
3190 2046 3190000000
3191 2046 3191000000
3192 2046 3192000000
3193 2046 3193000000
3194 2048 3194000000
3195 2048 3195000000
3196 2048 3196000000
3197 2048 3197000000
3198 2049 3198000000
3199 2049 3199000000
3200 2049 3200000000
3201 2050 3201000000
3202 2050 3202000000
3203 2051 3203000000
3204 2052 3204000000
3205 2054 3205000000
3206 2055 3206000000
3207 2055 3207000000
3208 2055 3208000000
3209 2056 3209000000
3210 2056 3210000000
3211 2056 3211000000
3212 2057 3212000000
3213 2057 3213000000
3214 2057 3214000000
3215 2059 3215000000
3216 2060 3216000000
3217 2060 3217000000
3218 2060 3218000000
3219 2060 3219000000
3220 2059 3220000000
3221 2059 3221000000
3222 2059 3222000000
3223 2059 3223000000
3224 2059 3224000000
3225 2059 3225000000
3226 2061 3226000000
3227 2061 3227000000
3228 2062 3228000000
3229 2063 3229000000
3230 2064 3230000000
3231 2064 3231000000
3232 2064 3232000000
3233 2064 3233000000
3234 2065 3234000000
3235 2065 3235000000
3236 2066 3236000000
3237 2068 3237000000
3238 2069 3238000000
3239 2069 3239000000
3240 2067 3240000000
3241 2067 3241000000
3242 2067 3242000000
3243 2069 3243000000
3244 2069 3244000000
3245 2069 3245000000
3246 2068 3246000000
3247 2068 3247000000
3248 2067 3248000000
3249 2067 3249000000
3250 2067 3250000000
3251 2067 3251000000
3252 2067 3252000000
3253 2066 3253000000
3254 2067 3254000000
3255 2067 3255000000
3256 2066 3256000000
3257 2065 3257000000
3258 2064 3258000000
3259 2063 3259000000
3260 2063 3260000000
3261 2063 3261000000
3262 2064 3262000000
3263 2064 3263000000
3264 2065 3264000000
3265 2065 3265000000
3266 2065 3266000000
3267 2063 3267000000
3268 2062 3268000000
3269 2060 3269000000
3270 2060 3270000000
3271 2060 3271000000
3272 2060 3272000000
3273 2059 3273000000
3274 2058 3274000000
3275 2058 3275000000
3276 2060 3276000000
3277 2062 3277000000
3278 2064 3278000000
3279 2064 3279000000
3280 2065 3280000000
3281 2065 3281000000
3282 2065 3282000000
3283 2065 3283000000
3284 2063 3284000000
3285 2061 3285000000
3286 2061 3286000000
3287 2060 3287000000
3288 2059 3288000000
3289 2058 3289000000
3290 2056 3290000000
3291 2055 3291000000
3292 2054 3292000000
3293 2051 3293000000
3294 2051 3294000000
3295 2049 3295000000
3296 2047 3296000000
3297 2047 3297000000
3298 2045 3298000000
3299 2044 3299000000
3300 2044 3300000000
3301 2042 3301000000
3302 2041 3302000000
3303 2041 3303000000
3304 2043 3304000000
3305 2043 3305000000
3306 2044 3306000000
3307 2044 3307000000
3308 2043 3308000000
3309 2042 3309000000
3310 2042 3310000000
3311 2042 3311000000
3312 2040 3312000000
3313 2039 3313000000
3314 2038 3314000000
3315 2039 3315000000
3316 2040 3316000000
3317 2040 3317000000
3318 2041 3318000000
3319 2041 3319000000
3320 2041 3320000000
3321 2041 3321000000
3322 2041 3322000000
3323 2041 3323000000
3324 2041 3324000000
3325 2041 3325000000
3326 2040 3326000000
3327 2039 3327000000
3328 2039 3328000000
3329 2039 3329000000
3330 2039 3330000000
3331 2038 3331000000
3332 2037 3332000000
3333 2036 3333000000
3334 2035 3334000000
3335 2035 3335000000
3336 2035 3336000000
3337 2034 3337000000
3338 2034 3338000000
3339 2034 3339000000
3340 2034 3340000000
3341 2034 3341000000
3342 2036 3342000000
3343 2034 3343000000
3344 2034 3344000000
3345 2034 3345000000
3346 2035 3346000000
3347 2036 3347000000
3348 2036 3348000000
3349 2036 3349000000
3350 2036 3350000000
3351 2036 3351000000
3352 2036 3352000000
3353 2036 3353000000
3354 2035 3354000000
3355 2035 3355000000
3356 2035 3356000000
3357 2036 3357000000
3358 2037 3358000000
3359 2037 3359000000
3360 2037 3360000000
3361 2036 3361000000
3362 2036 3362000000
3363 2035 3363000000
3364 2035 3364000000
3365 2037 3365000000
3366 2038 3366000000
3367 2038 3367000000
3368 2038 3368000000
3369 2038 3369000000
3370 2038 3370000000
3371 2039 3371000000
3372 2039 3372000000
3373 2039 3373000000
3374 2039 3374000000
3375 2039 3375000000
3376 2038 3376000000
3377 2038 3377000000
3378 2038 3378000000
3379 2036 3379000000
3380 2036 3380000000
3381 2035 3381000000
3382 2034 3382000000
3383 2033 3383000000
3384 2030 3384000000
3385 2027 3385000000
3386 2024 3386000000
3387 2022 3387000000
3388 2021 3388000000
3389 2019 3389000000
3390 2014 3390000000
3391 2011 3391000000
3392 2009 3392000000
3393 2005 3393000000
3394 2005 3394000000
3395 2002 3395000000
3396 1996 3396000000
3397 1996 3397000000
3398 1994 3398000000
3399 1994 3399000000
3400 1994 3400000000
3401 2004 3401000000
3402 2007 3402000000
3403 2012 3403000000
3404 2022 3404000000
3405 2028 3405000000
3406 2039 3406000000
3407 2053 3407000000
3408 2059 3408000000
3409 2080 3409000000
3410 2090 3410000000
3411 2098 3411000000
3412 2140 3412000000
3413 2152 3413000000
3414 2167 3414000000
3415 2207 3415000000
3416 2220 3416000000
3417 2238 3417000000
3418 2270 3418000000
3419 2278 3419000000
3420 2294 3420000000
3421 2303 3421000000
3422 2310 3422000000
3423 2315 3423000000
3424 2315 3424000000
3425 2318 3425000000
3426 2290 3426000000
3427 2280 3427000000
3428 2266 3428000000
3429 2218 3429000000
3430 2199 3430000000
3431 2172 3431000000
3432 2130 3432000000
3433 2109 3433000000
3434 2083 3434000000
3435 2051 3435000000
3436 2039 3436000000
3437 2017 3437000000
3438 2007 3438000000
3439 1991 3439000000
3440 1991 3440000000
3441 1987 3441000000
3442 1986 3442000000
3443 1986 3443000000
3444 1993 3444000000
3445 2001 3445000000
3446 2011 3446000000
3447 2011 3447000000
3448 2020 3448000000
3449 2023 3449000000
3450 2027 3450000000
3451 2029 3451000000
3452 2030 3452000000
3453 2030 3453000000
3454 2028 3454000000
3455 2028 3455000000
3456 2021 3456000000
3457 2019 3457000000
3458 2017 3458000000
3459 2015 3459000000
3460 2015 3460000000
3461 2015 3461000000
3462 2015 3462000000
3463 2015 3463000000
3464 2015 3464000000
3465 2019 3465000000
3466 2020 3466000000
3467 2021 3467000000
3468 2023 3468000000
3469 2024 3469000000
3470 2023 3470000000
3471 2023 3471000000
3472 2022 3472000000
3473 2020 3473000000
3474 2018 3474000000
3475 2017 3475000000
3476 2017 3476000000
3477 2017 3477000000
3478 2020 3478000000
3479 2019 3479000000
3480 2019 3480000000
3481 2022 3481000000
3482 2024 3482000000
3483 2024 3483000000
3484 2027 3484000000
3485 2027 3485000000
3486 2027 3486000000
3487 2027 3487000000
3488 2027 3488000000
3489 2024 3489000000
3490 2023 3490000000
3491 2023 3491000000
3492 2023 3492000000
3493 2023 3493000000
3494 2024 3494000000
3495 2024 3495000000
3496 2024 3496000000
3497 2024 3497000000
3498 2027 3498000000
3499 2027 3499000000
3500 2027 3500000000
3501 2028 3501000000
3502 2028 3502000000
3503 2028 3503000000
3504 2026 3504000000
3505 2026 3505000000
3506 2026 3506000000
3507 2026 3507000000
3508 2026 3508000000
3509 2025 3509000000
3510 2025 3510000000
3511 2025 3511000000
3512 2023 3512000000
3513 2022 3513000000
3514 2021 3514000000
3515 2024 3515000000
3516 2024 3516000000
3517 2024 3517000000
3518 2025 3518000000
3519 2025 3519000000
3520 2024 3520000000
3521 2024 3521000000
3522 2024 3522000000
3523 2024 3523000000
3524 2024 3524000000
3525 2024 3525000000
3526 2025 3526000000
3527 2025 3527000000
3528 2026 3528000000
3529 2024 3529000000
3530 2023 3530000000
3531 2023 3531000000
3532 2024 3532000000
3533 2024 3533000000
3534 2025 3534000000
3535 2025 3535000000
3536 2025 3536000000
3537 2025 3537000000
3538 2024 3538000000
3539 2024 3539000000
3540 2024 3540000000
3541 2024 3541000000
3542 2024 3542000000
3543 2024 3543000000
3544 2024 3544000000
3545 2026 3545000000
3546 2026 3546000000
3547 2026 3547000000
3548 2026 3548000000
3549 2027 3549000000
3550 2027 3550000000
3551 2024 3551000000
3552 2024 3552000000
3553 2023 3553000000
3554 2023 3554000000
3555 2024 3555000000
3556 2025 3556000000
3557 2025 3557000000
3558 2025 3558000000
3559 2025 3559000000
3560 2025 3560000000
3561 2025 3561000000
3562 2025 3562000000
3563 2025 3563000000
3564 2025 3564000000
3565 2026 3565000000
3566 2026 3566000000
3567 2026 3567000000
3568 2027 3568000000
3569 2027 3569000000
3570 2027 3570000000
3571 2028 3571000000
3572 2028 3572000000
3573 2028 3573000000
3574 2028 3574000000
3575 2029 3575000000
3576 2029 3576000000
3577 2029 3577000000
3578 2031 3578000000
3579 2031 3579000000
3580 2031 3580000000
3581 2031 3581000000
3582 2031 3582000000
3583 2032 3583000000
3584 2032 3584000000
3585 2032 3585000000
3586 2031 3586000000
3587 2030 3587000000
3588 2029 3588000000
3589 2028 3589000000
3590 2028 3590000000
3591 2028 3591000000
3592 2028 3592000000
3593 2027 3593000000
3594 2026 3594000000
3595 2025 3595000000
3596 2024 3596000000
3597 2024 3597000000
3598 2026 3598000000
3599 2027 3599000000
3600 2027 3600000000
3601 2028 3601000000
3602 2028 3602000000
3603 2028 3603000000
3604 2029 3604000000
3605 2029 3605000000
3606 2030 3606000000
3607 2030 3607000000
3608 2031 3608000000
3609 2030 3609000000
3610 2029 3610000000
3611 2029 3611000000
3612 2030 3612000000
3613 2032 3613000000
3614 2032 3614000000
3615 2032 3615000000
3616 2032 3616000000
3617 2031 3617000000
3618 2031 3618000000
3619 2031 3619000000
3620 2030 3620000000
3621 2030 3621000000
3622 2030 3622000000
3623 2030 3623000000
3624 2030 3624000000
3625 2030 3625000000
3626 2032 3626000000
3627 2031 3627000000
3628 2032 3628000000
3629 2031 3629000000
3630 2030 3630000000
3631 2030 3631000000
3632 2030 3632000000
3633 2030 3633000000
3634 2030 3634000000
3635 2031 3635000000
3636 2031 3636000000
3637 2031 3637000000
3638 2031 3638000000
3639 2031 3639000000
3640 2031 3640000000
3641 2031 3641000000
3642 2031 3642000000
3643 2031 3643000000
3644 2031 3644000000
3645 2032 3645000000
3646 2030 3646000000
3647 2030 3647000000
3648 2030 3648000000
3649 2029 3649000000
3650 2029 3650000000
3651 2029 3651000000
3652 2029 3652000000
3653 2026 3653000000
3654 2026 3654000000
3655 2026 3655000000
3656 2026 3656000000
3657 2026 3657000000
3658 2026 3658000000
3659 2024 3659000000
3660 2023 3660000000
3661 2023 3661000000
3662 2024 3662000000
3663 2024 3663000000
3664 2025 3664000000
3665 2025 3665000000
3666 2025 3666000000
3667 2023 3667000000
3668 2025 3668000000
3669 2025 3669000000
3670 2023 3670000000
3671 2022 3671000000
3672 2022 3672000000
3673 2019 3673000000
3674 2018 3674000000
3675 2018 3675000000
3676 2020 3676000000
3677 2020 3677000000
3678 2022 3678000000
3679 2022 3679000000
3680 2022 3680000000
3681 2022 3681000000
3682 2024 3682000000
3683 2025 3683000000
3684 2025 3684000000
3685 2025 3685000000
3686 2025 3686000000
3687 2026 3687000000
3688 2026 3688000000
3689 2028 3689000000
3690 2028 3690000000
3691 2028 3691000000
3692 2028 3692000000
3693 2027 3693000000
3694 2027 3694000000
3695 2027 3695000000
3696 2027 3696000000
3697 2027 3697000000
3698 2026 3698000000
3699 2026 3699000000
3700 2026 3700000000
3701 2026 3701000000
3702 2027 3702000000
3703 2027 3703000000
3704 2028 3704000000
3705 2028 3705000000
3706 2029 3706000000
3707 2030 3707000000
3708 2032 3708000000
3709 2032 3709000000
3710 2032 3710000000
3711 2032 3711000000
3712 2033 3712000000
3713 2033 3713000000
3714 2034 3714000000
3715 2036 3715000000
3716 2036 3716000000
3717 2037 3717000000
3718 2038 3718000000
3719 2040 3719000000
3720 2040 3720000000
3721 2040 3721000000
3722 2040 3722000000
3723 2042 3723000000
3724 2042 3724000000
3725 2042 3725000000
3726 2042 3726000000
3727 2042 3727000000
3728 2047 3728000000
3729 2047 3729000000
3730 2048 3730000000
3731 2049 3731000000
3732 2050 3732000000
3733 2051 3733000000
3734 2052 3734000000
3735 2053 3735000000
3736 2053 3736000000
3737 2053 3737000000
3738 2054 3738000000
3739 2055 3739000000
3740 2057 3740000000
3741 2057 3741000000
3742 2059 3742000000
3743 2059 3743000000
3744 2059 3744000000
3745 2061 3745000000
3746 2060 3746000000
3747 2060 3747000000
3748 2060 3748000000
3749 2061 3749000000
3750 2061 3750000000
3751 2060 3751000000
3752 2060 3752000000
3753 2058 3753000000
3754 2058 3754000000
3755 2058 3755000000
3756 2058 3756000000
3757 2058 3757000000
3758 2058 3758000000
3759 2058 3759000000
3760 2058 3760000000
3761 2058 3761000000
3762 2058 3762000000
3763 2058 3763000000
3764 2058 3764000000
3765 2059 3765000000
3766 2059 3766000000
3767 2058 3767000000
3768 2059 3768000000
3769 2059 3769000000
3770 2059 3770000000
3771 2058 3771000000
3772 2058 3772000000
3773 2059 3773000000
3774 2060 3774000000
3775 2060 3775000000
3776 2060 3776000000
3777 2059 3777000000
3778 2059 3778000000
3779 2058 3779000000
3780 2058 3780000000
3781 2058 3781000000
3782 2059 3782000000
3783 2059 3783000000
3784 2059 3784000000
3785 2059 3785000000
3786 2059 3786000000
3787 2058 3787000000
3788 2058 3788000000
3789 2059 3789000000
3790 2059 3790000000
3791 2059 3791000000
3792 2059 3792000000
3793 2059 3793000000
3794 2059 3794000000
3795 2059 3795000000
3796 2060 3796000000
3797 2061 3797000000
3798 2062 3798000000
3799 2063 3799000000
3800 2064 3800000000
3801 2064 3801000000
3802 2064 3802000000
3803 2063 3803000000
3804 2062 3804000000
3805 2062 3805000000
3806 2061 3806000000
3807 2061 3807000000
3808 2061 3808000000
3809 2060 3809000000
3810 2060 3810000000
3811 2060 3811000000
3812 2057 3812000000
3813 2057 3813000000
3814 2055 3814000000
3815 2057 3815000000
3816 2058 3816000000
3817 2058 3817000000
3818 2058 3818000000
3819 2058 3819000000
3820 2058 3820000000
3821 2057 3821000000
3822 2057 3822000000
3823 2056 3823000000
3824 2055 3824000000
3825 2055 3825000000
3826 2055 3826000000
3827 2055 3827000000
3828 2055 3828000000
3829 2054 3829000000
3830 2054 3830000000
3831 2053 3831000000
3832 2053 3832000000
3833 2053 3833000000
3834 2053 3834000000
3835 2053 3835000000
3836 2053 3836000000
3837 2052 3837000000
3838 2052 3838000000
3839 2052 3839000000
3840 2050 3840000000
3841 2050 3841000000
3842 2050 3842000000
3843 2052 3843000000
3844 2052 3844000000
3845 2053 3845000000
3846 2052 3846000000
3847 2051 3847000000
3848 2051 3848000000
3849 2052 3849000000
3850 2052 3850000000
3851 2052 3851000000
3852 2051 3852000000
3853 2050 3853000000
3854 2050 3854000000
3855 2050 3855000000
3856 2052 3856000000
3857 2053 3857000000
3858 2054 3858000000
3859 2053 3859000000
3860 2052 3860000000
3861 2052 3861000000
3862 2052 3862000000
3863 2052 3863000000
3864 2052 3864000000
3865 2050 3865000000
3866 2049 3866000000
3867 2048 3867000000
3868 2049 3868000000
3869 2049 3869000000
3870 2048 3870000000
3871 2049 3871000000
3872 2050 3872000000
3873 2050 3873000000
3874 2049 3874000000
3875 2050 3875000000
3876 2052 3876000000
3877 2054 3877000000
3878 2055 3878000000
3879 2052 3879000000
3880 2051 3880000000
3881 2051 3881000000
3882 2052 3882000000
3883 2052 3883000000
3884 2052 3884000000
3885 2052 3885000000
3886 2052 3886000000
3887 2052 3887000000
3888 2050 3888000000
3889 2050 3889000000
3890 2050 3890000000
3891 2050 3891000000
3892 2050 3892000000
3893 2049 3893000000
3894 2049 3894000000
3895 2050 3895000000
3896 2050 3896000000
3897 2050 3897000000
3898 2050 3898000000
3899 2051 3899000000
3900 2051 3900000000
3901 2052 3901000000
3902 2052 3902000000
3903 2052 3903000000
3904 2052 3904000000
3905 2052 3905000000
3906 2053 3906000000
3907 2051 3907000000
3908 2051 3908000000
3909 2050 3909000000
3910 2050 3910000000
3911 2050 3911000000
3912 2048 3912000000
3913 2047 3913000000
3914 2047 3914000000
3915 2047 3915000000
3916 2048 3916000000
3917 2047 3917000000
3918 2047 3918000000
3919 2047 3919000000
3920 2047 3920000000
3921 2047 3921000000
3922 2047 3922000000
3923 2048 3923000000
3924 2049 3924000000
3925 2051 3925000000
3926 2051 3926000000
3927 2051 3927000000
3928 2051 3928000000
3929 2050 3929000000
3930 2048 3930000000
3931 2049 3931000000
3932 2050 3932000000
3933 2052 3933000000
3934 2052 3934000000
3935 2053 3935000000
3936 2053 3936000000
3937 2053 3937000000
3938 2052 3938000000
3939 2051 3939000000
3940 2050 3940000000
3941 2049 3941000000
3942 2049 3942000000
3943 2050 3943000000
3944 2050 3944000000
3945 2051 3945000000
3946 2051 3946000000
3947 2051 3947000000
3948 2051 3948000000
3949 2051 3949000000
3950 2051 3950000000
3951 2050 3951000000
3952 2050 3952000000
3953 2050 3953000000
3954 2050 3954000000
3955 2050 3955000000
3956 2050 3956000000
3957 2050 3957000000
3958 2049 3958000000
3959 2049 3959000000
3960 2048 3960000000
3961 2048 3961000000
3962 2048 3962000000
3963 2049 3963000000
3964 2049 3964000000
3965 2049 3965000000
3966 2049 3966000000
3967 2048 3967000000
3968 2050 3968000000
3969 2050 3969000000
3970 2050 3970000000
3971 2050 3971000000
3972 2049 3972000000
3973 2049 3973000000
3974 2049 3974000000
3975 2049 3975000000
3976 2048 3976000000
3977 2048 3977000000
3978 2048 3978000000
3979 2048 3979000000
3980 2048 3980000000
3981 2048 3981000000
3982 2048 3982000000
3983 2048 3983000000
3984 2049 3984000000
3985 2049 3985000000
3986 2049 3986000000
3987 2049 3987000000
3988 2049 3988000000
3989 2050 3989000000
3990 2051 3990000000
3991 2052 3991000000
3992 2053 3992000000
3993 2055 3993000000
3994 2055 3994000000
3995 2056 3995000000
3996 2056 3996000000
3997 2056 3997000000
3998 2060 3998000000
3999 2061 3999000000
4000 2063 4000000000
4001 2063 4001000000
4002 2063 4002000000
4003 2063 4003000000
4004 2065 4004000000
4005 2065 4005000000
4006 2066 4006000000
4007 2065 4007000000
4008 2065 4008000000
4009 2066 4009000000
4010 2066 4010000000
4011 2066 4011000000
4012 2067 4012000000
4013 2068 4013000000
4014 2068 4014000000
4015 2069 4015000000
4016 2069 4016000000
4017 2068 4017000000
4018 2070 4018000000
4019 2070 4019000000
4020 2070 4020000000
4021 2070 4021000000
4022 2070 4022000000
4023 2071 4023000000
4024 2072 4024000000
4025 2074 4025000000
4026 2073 4026000000
4027 2073 4027000000
4028 2073 4028000000
4029 2073 4029000000
4030 2073 4030000000
4031 2074 4031000000
4032 2075 4032000000
4033 2075 4033000000
4034 2074 4034000000
4035 2072 4035000000
4036 2072 4036000000
4037 2071 4037000000
4038 2071 4038000000
4039 2072 4039000000
4040 2071 4040000000
4041 2070 4041000000
4042 2070 4042000000
4043 2070 4043000000
4044 2069 4044000000
4045 2069 4045000000
4046 2068 4046000000
4047 2067 4047000000
4048 2068 4048000000
4049 2069 4049000000
4050 2069 4050000000
4051 2069 4051000000
4052 2069 4052000000
4053 2069 4053000000
4054 2069 4054000000
4055 2069 4055000000
4056 2068 4056000000
4057 2067 4057000000
4058 2066 4058000000
4059 2066 4059000000
4060 2066 4060000000
4061 2066 4061000000
4062 2067 4062000000
4063 2067 4063000000
4064 2067 4064000000
4065 2069 4065000000
4066 2069 4066000000
4067 2070 4067000000
4068 2071 4068000000
4069 2072 4069000000
4070 2072 4070000000
4071 2074 4071000000
4072 2074 4072000000
4073 2075 4073000000
4074 2074 4074000000
4075 2074 4075000000
4076 2073 4076000000
4077 2072 4077000000
4078 2072 4078000000
4079 2067 4079000000
4080 2065 4080000000
4081 2065 4081000000
4082 2063 4082000000
4083 2063 4083000000
4084 2060 4084000000
4085 2056 4085000000
4086 2056 4086000000
4087 2053 4087000000
4088 2053 4088000000
4089 2053 4089000000
4090 2050 4090000000
4091 2049 4091000000
4092 2048 4092000000
4093 2047 4093000000
4094 2046 4094000000
4095 2047 4095000000
4096 2047 4096000000
4097 2047 4097000000
4098 2047 4098000000
4099 2044 4099000000
4100 2044 4100000000
4101 2041 4101000000
4102 2040 4102000000
4103 2039 4103000000
4104 2038 4104000000
4105 2037 4105000000
4106 2037 4106000000
4107 2037 4107000000
4108 2038 4108000000
4109 2039 4109000000
4110 2041 4110000000
4111 2042 4111000000
4112 2041 4112000000
4113 2040 4113000000
4114 2040 4114000000
4115 2040 4115000000
4116 2041 4116000000
4117 2041 4117000000
4118 2041 4118000000
4119 2041 4119000000
4120 2041 4120000000
4121 2041 4121000000
4122 2041 4122000000
4123 2040 4123000000
4124 2040 4124000000
4125 2040 4125000000
4126 2040 4126000000
4127 2039 4127000000
4128 2039 4128000000
4129 2037 4129000000
4130 2037 4130000000
4131 2037 4131000000
4132 2038 4132000000
4133 2039 4133000000
4134 2038 4134000000
4135 2036 4135000000
4136 2035 4136000000
4137 2037 4137000000
4138 2038 4138000000
4139 2039 4139000000
4140 2039 4140000000
4141 2039 4141000000
4142 2040 4142000000
4143 2039 4143000000
4144 2038 4144000000
4145 2037 4145000000
4146 2036 4146000000
4147 2035 4147000000
4148 2038 4148000000
4149 2039 4149000000
4150 2039 4150000000
4151 2040 4151000000
4152 2040 4152000000
4153 2040 4153000000
4154 2039 4154000000
4155 2038 4155000000
4156 2038 4156000000
4157 2038 4157000000
4158 2038 4158000000
4159 2039 4159000000
4160 2039 4160000000
4161 2039 4161000000
4162 2038 4162000000
4163 2037 4163000000
4164 2036 4164000000
4165 2035 4165000000
4166 2035 4166000000
4167 2033 4167000000
4168 2032 4168000000
4169 2032 4169000000
4170 2027 4170000000
4171 2023 4171000000
4172 2023 4172000000
4173 2019 4173000000
4174 2017 4174000000
4175 2016 4175000000
4176 2014 4176000000
4177 2013 4177000000
4178 2012 4178000000
4179 2008 4179000000
4180 2006 4180000000
4181 2002 4181000000
4182 2000 4182000000
4183 1998 4183000000
4184 1997 4184000000
4185 1997 4185000000
4186 1997 4186000000
4187 2000 4187000000
4188 2002 4188000000
4189 2004 4189000000
4190 2015 4190000000
4191 2020 4191000000
4192 2026 4192000000
4193 2036 4193000000
4194 2042 4194000000
4195 2056 4195000000
4196 2071 4196000000
4197 2077 4197000000
4198 2096 4198000000
4199 2119 4199000000
4200 2125 4200000000
4201 2162 4201000000
4202 2180 4202000000
4203 2198 4203000000
4204 2233 4204000000
4205 2250 4205000000
4206 2269 4206000000
4207 2294 4207000000
4208 2301 4208000000
4209 2315 4209000000
4210 2322 4210000000
4211 2330 4211000000
4212 2330 4212000000
4213 2327 4213000000
4214 2323 4214000000
4215 2295 4215000000
4216 2279 4216000000
4217 2256 4217000000
4218 2214 4218000000
4219 2194 4219000000
4220 2150 4220000000
4221 2112 4221000000
4222 2101 4222000000
4223 2061 4223000000
4224 2044 4224000000
4225 2032 4225000000
4226 2012 4226000000
4227 2002 4227000000
4228 1990 4228000000
4229 1990 4229000000
4230 1985 4230000000
4231 1986 4231000000
4232 1989 4232000000
4233 1993 4233000000
4234 2001 4234000000
4235 2011 4235000000
4236 2011 4236000000
4237 2019 4237000000
4238 2023 4238000000
4239 2026 4239000000
4240 2026 4240000000
4241 2026 4241000000
4242 2025 4242000000
4243 2025 4243000000
4244 2025 4244000000
4245 2019 4245000000
4246 2018 4246000000
4247 2016 4247000000
4248 2016 4248000000
4249 2016 4249000000
4250 2016 4250000000
4251 2020 4251000000
4252 2022 4252000000
4253 2024 4253000000
4254 2024 4254000000
4255 2024 4255000000
4256 2024 4256000000
4257 2024 4257000000
4258 2027 4258000000
4259 2025 4259000000
4260 2024 4260000000
4261 2022 4261000000
4262 2020 4262000000
4263 2019 4263000000
4264 2019 4264000000
4265 2017 4265000000
4266 2017 4266000000
4267 2018 4267000000
4268 2019 4268000000
4269 2021 4269000000
4270 2021 4270000000
4271 2022 4271000000
4272 2022 4272000000
4273 2022 4273000000
4274 2022 4274000000
4275 2021 4275000000
4276 2021 4276000000
4277 2021 4277000000
4278 2022 4278000000
4279 2021 4279000000
4280 2020 4280000000
4281 2019 4281000000
4282 2019 4282000000
4283 2019 4283000000
4284 2020 4284000000
4285 2021 4285000000
4286 2022 4286000000
4287 2022 4287000000
4288 2022 4288000000
4289 2022 4289000000
4290 2022 4290000000
4291 2022 4291000000
4292 2023 4292000000
4293 2021 4293000000
4294 2021 4294000000
4295 2021 4295000000
4296 2021 4296000000
4297 2021 4297000000
4298 2021 4298000000
4299 2021 4299000000
4300 2021 4300000000
4301 2020 4301000000
4302 2021 4302000000
4303 2022 4303000000
4304 2023 4304000000
4305 2024 4305000000
4306 2024 4306000000
4307 2024 4307000000
4308 2025 4308000000
4309 2025 4309000000
4310 2024 4310000000
4311 2023 4311000000
4312 2024 4312000000
4313 2024 4313000000
4314 2023 4314000000
4315 2024 4315000000
4316 2024 4316000000
4317 2024 4317000000
4318 2024 4318000000
4319 2024 4319000000
4320 2024 4320000000
4321 2024 4321000000
4322 2024 4322000000
4323 2024 4323000000
4324 2024 4324000000
4325 2024 4325000000
4326 2025 4326000000
4327 2025 4327000000
4328 2026 4328000000
4329 2026 4329000000
4330 2026 4330000000
4331 2026 4331000000
4332 2026 4332000000
4333 2024 4333000000
4334 2025 4334000000
4335 2025 4335000000
4336 2025 4336000000
4337 2025 4337000000
4338 2025 4338000000
4339 2026 4339000000
4340 2026 4340000000
4341 2026 4341000000
4342 2026 4342000000
4343 2025 4343000000
4344 2025 4344000000
4345 2024 4345000000
4346 2024 4346000000
4347 2024 4347000000
4348 2024 4348000000
4349 2025 4349000000
4350 2025 4350000000
4351 2025 4351000000
4352 2025 4352000000
4353 2024 4353000000
4354 2023 4354000000
4355 2022 4355000000
4356 2022 4356000000
4357 2022 4357000000
4358 2022 4358000000
4359 2025 4359000000
4360 2024 4360000000
4361 2025 4361000000
4362 2024 4362000000
4363 2024 4363000000
4364 2024 4364000000
4365 2024 4365000000
4366 2024 4366000000
4367 2023 4367000000
4368 2025 4368000000
4369 2025 4369000000
4370 2025 4370000000
4371 2026 4371000000
4372 2026 4372000000
4373 2027 4373000000
4374 2027 4374000000
4375 2027 4375000000
4376 2028 4376000000
4377 2028 4377000000
4378 2029 4378000000
4379 2029 4379000000
4380 2029 4380000000
4381 2029 4381000000
4382 2029 4382000000
4383 2029 4383000000
4384 2029 4384000000
4385 2029 4385000000
4386 2029 4386000000
4387 2029 4387000000
4388 2029 4388000000
4389 2029 4389000000
4390 2027 4390000000
4391 2026 4391000000
4392 2026 4392000000
4393 2025 4393000000
4394 2025 4394000000
4395 2025 4395000000
4396 2027 4396000000
4397 2027 4397000000
4398 2028 4398000000
4399 2028 4399000000
4400 2028 4400000000
4401 2028 4401000000
4402 2026 4402000000
4403 2025 4403000000
4404 2026 4404000000
4405 2026 4405000000
4406 2026 4406000000
4407 2025 4407000000
4408 2025 4408000000
4409 2025 4409000000
4410 2027 4410000000
4411 2027 4411000000
4412 2027 4412000000
4413 2027 4413000000
4414 2027 4414000000
4415 2028 4415000000
4416 2029 4416000000
4417 2029 4417000000
4418 2029 4418000000
4419 2030 4419000000
4420 2029 4420000000
4421 2029 4421000000
4422 2028 4422000000
4423 2028 4423000000
4424 2030 4424000000
4425 2030 4425000000
4426 2030 4426000000
4427 2030 4427000000
4428 2032 4428000000
4429 2031 4429000000
4430 2031 4430000000
4431 2031 4431000000
4432 2032 4432000000
4433 2032 4433000000
4434 2032 4434000000
4435 2032 4435000000
4436 2032 4436000000
4437 2032 4437000000
4438 2032 4438000000
4439 2032 4439000000
4440 2031 4440000000
4441 2031 4441000000
4442 2031 4442000000
4443 2031 4443000000
4444 2031 4444000000
4445 2030 4445000000
4446 2029 4446000000
4447 2029 4447000000
4448 2028 4448000000
4449 2028 4449000000
4450 2028 4450000000
4451 2028 4451000000
4452 2029 4452000000
4453 2029 4453000000
4454 2029 4454000000
4455 2029 4455000000
4456 2028 4456000000
4457 2027 4457000000
4458 2027 4458000000
4459 2028 4459000000
4460 2027 4460000000
4461 2027 4461000000
4462 2026 4462000000
4463 2025 4463000000
4464 2025 4464000000
4465 2025 4465000000
4466 2025 4466000000
4467 2025 4467000000
4468 2025 4468000000
4469 2025 4469000000
4470 2024 4470000000
4471 2024 4471000000
4472 2024 4472000000
4473 2024 4473000000
4474 2024 4474000000
4475 2024 4475000000
4476 2024 4476000000
4477 2023 4477000000
4478 2024 4478000000
4479 2025 4479000000
4480 2025 4480000000
4481 2025 4481000000
4482 2025 4482000000
4483 2025 4483000000
4484 2025 4484000000
4485 2025 4485000000
4486 2025 4486000000
4487 2025 4487000000
4488 2024 4488000000
4489 2024 4489000000
4490 2024 4490000000
4491 2023 4491000000
4492 2024 4492000000
4493 2025 4493000000
4494 2025 4494000000
4495 2027 4495000000
4496 2026 4496000000
4497 2025 4497000000
4498 2027 4498000000
4499 2028 4499000000
4500 2028 4500000000
4501 2028 4501000000
4502 2028 4502000000
4503 2027 4503000000
4504 2029 4504000000
4505 2029 4505000000
4506 2031 4506000000
4507 2033 4507000000
4508 2034 4508000000
4509 2034 4509000000
4510 2034 4510000000
4511 2036 4511000000
4512 2039 4512000000
4513 2040 4513000000
4514 2041 4514000000
4515 2043 4515000000
4516 2044 4516000000
4517 2046 4517000000
4518 2049 4518000000
4519 2049 4519000000
4520 2050 4520000000
4521 2050 4521000000
4522 2050 4522000000
4523 2052 4523000000
4524 2053 4524000000
4525 2053 4525000000
4526 2054 4526000000
4527 2054 4527000000
4528 2054 4528000000
4529 2054 4529000000
4530 2055 4530000000
4531 2056 4531000000
4532 2057 4532000000
4533 2058 4533000000
4534 2059 4534000000
4535 2060 4535000000
4536 2060 4536000000
4537 2061 4537000000
4538 2061 4538000000
4539 2062 4539000000
4540 2062 4540000000
4541 2062 4541000000
4542 2063 4542000000
4543 2063 4543000000
4544 2063 4544000000
4545 2064 4545000000
4546 2062 4546000000
4547 2061 4547000000
4548 2061 4548000000
4549 2062 4549000000
4550 2062 4550000000
4551 2063 4551000000
4552 2063 4552000000
4553 2062 4553000000
4554 2062 4554000000
4555 2062 4555000000
4556 2062 4556000000
4557 2061 4557000000
4558 2060 4558000000
4559 2061 4559000000
4560 2061 4560000000
4561 2063 4561000000
4562 2064 4562000000
4563 2064 4563000000
4564 2063 4564000000
4565 2063 4565000000
4566 2063 4566000000
4567 2062 4567000000
4568 2063 4568000000
4569 2063 4569000000
4570 2063 4570000000
4571 2063 4571000000
4572 2063 4572000000
4573 2063 4573000000
4574 2063 4574000000
4575 2064 4575000000
4576 2064 4576000000
4577 2063 4577000000
4578 2063 4578000000
4579 2063 4579000000
4580 2063 4580000000
4581 2063 4581000000
4582 2064 4582000000
4583 2064 4583000000
4584 2064 4584000000
4585 2064 4585000000
4586 2064 4586000000
4587 2064 4587000000
4588 2064 4588000000
4589 2064 4589000000
4590 2064 4590000000
4591 2064 4591000000
4592 2065 4592000000
4593 2065 4593000000
4594 2065 4594000000
4595 2065 4595000000
4596 2064 4596000000
4597 2063 4597000000
4598 2063 4598000000
4599 2063 4599000000
4600 2063 4600000000
4601 2063 4601000000
4602 2063 4602000000
4603 2063 4603000000
4604 2062 4604000000
4605 2062 4605000000
4606 2061 4606000000
4607 2060 4607000000
4608 2059 4608000000
4609 2060 4609000000
4610 2060 4610000000
4611 2060 4611000000
4612 2059 4612000000
4613 2059 4613000000
4614 2058 4614000000
4615 2059 4615000000
4616 2059 4616000000
4617 2059 4617000000
4618 2059 4618000000
4619 2059 4619000000
4620 2057 4620000000
4621 2058 4621000000
4622 2058 4622000000
4623 2059 4623000000
4624 2058 4624000000
4625 2059 4625000000
4626 2058 4626000000
4627 2058 4627000000
4628 2058 4628000000
4629 2058 4629000000
4630 2058 4630000000
4631 2058 4631000000
4632 2058 4632000000
4633 2056 4633000000
4634 2056 4634000000
4635 2057 4635000000
4636 2057 4636000000
4637 2055 4637000000
4638 2055 4638000000
4639 2055 4639000000
4640 2054 4640000000
4641 2054 4641000000
4642 2055 4642000000
4643 2055 4643000000
4644 2055 4644000000
4645 2054 4645000000
4646 2053 4646000000
4647 2053 4647000000
4648 2052 4648000000
4649 2052 4649000000
4650 2051 4650000000
4651 2052 4651000000
4652 2052 4652000000
4653 2051 4653000000
4654 2051 4654000000
4655 2051 4655000000
4656 2052 4656000000
4657 2051 4657000000
4658 2051 4658000000
4659 2051 4659000000
4660 2051 4660000000
4661 2053 4661000000
4662 2052 4662000000
4663 2052 4663000000
4664 2052 4664000000
4665 2052 4665000000
4666 2052 4666000000
4667 2052 4667000000
4668 2053 4668000000
4669 2053 4669000000
4670 2051 4670000000
4671 2050 4671000000
4672 2050 4672000000
4673 2050 4673000000
4674 2050 4674000000
4675 2050 4675000000
4676 2050 4676000000
4677 2050 4677000000
4678 2049 4678000000
4679 2049 4679000000
4680 2050 4680000000
4681 2051 4681000000
4682 2051 4682000000
4683 2051 4683000000
4684 2052 4684000000
4685 2052 4685000000
4686 2052 4686000000
4687 2052 4687000000
4688 2051 4688000000
4689 2051 4689000000
4690 2051 4690000000
4691 2051 4691000000
4692 2052 4692000000
4693 2051 4693000000
4694 2050 4694000000
4695 2050 4695000000
4696 2050 4696000000
4697 2050 4697000000
4698 2049 4698000000
4699 2050 4699000000
4700 2049 4700000000
4701 2049 4701000000
4702 2049 4702000000
4703 2049 4703000000
4704 2048 4704000000
4705 2047 4705000000
4706 2047 4706000000
4707 2047 4707000000
4708 2048 4708000000
4709 2049 4709000000
4710 2049 4710000000
4711 2049 4711000000
4712 2049 4712000000
4713 2049 4713000000
4714 2049 4714000000
4715 2049 4715000000
4716 2049 4716000000
4717 2048 4717000000
4718 2048 4718000000
4719 2048 4719000000
4720 2048 4720000000
4721 2048 4721000000
4722 2048 4722000000
4723 2048 4723000000
4724 2049 4724000000
4725 2049 4725000000
4726 2050 4726000000
4727 2050 4727000000
4728 2050 4728000000
4729 2050 4729000000
4730 2050 4730000000
4731 2049 4731000000
4732 2050 4732000000
4733 2050 4733000000
4734 2050 4734000000
4735 2051 4735000000
4736 2051 4736000000
4737 2051 4737000000
4738 2051 4738000000
4739 2052 4739000000
4740 2050 4740000000
4741 2049 4741000000
4742 2049 4742000000
4743 2050 4743000000
4744 2052 4744000000
4745 2051 4745000000
4746 2050 4746000000
4747 2049 4747000000
4748 2049 4748000000
4749 2049 4749000000
4750 2049 4750000000
4751 2051 4751000000
4752 2051 4752000000
4753 2051 4753000000
4754 2050 4754000000
4755 2049 4755000000
4756 2049 4756000000
4757 2047 4757000000
4758 2047 4758000000
4759 2048 4759000000
4760 2048 4760000000
4761 2048 4761000000
4762 2049 4762000000
4763 2049 4763000000
4764 2048 4764000000
4765 2048 4765000000
4766 2048 4766000000
4767 2048 4767000000
4768 2048 4768000000
4769 2048 4769000000
4770 2047 4770000000
4771 2048 4771000000
4772 2048 4772000000
4773 2048 4773000000
4774 2049 4774000000
4775 2049 4775000000
4776 2049 4776000000
4777 2048 4777000000
4778 2048 4778000000
4779 2049 4779000000
4780 2049 4780000000
4781 2049 4781000000
4782 2050 4782000000
4783 2049 4783000000
4784 2050 4784000000
4785 2050 4785000000
4786 2050 4786000000
4787 2050 4787000000
4788 2050 4788000000
4789 2050 4789000000
4790 2050 4790000000
4791 2050 4791000000
4792 2051 4792000000
4793 2049 4793000000
4794 2049 4794000000
4795 2049 4795000000
4796 2049 4796000000
4797 2049 4797000000
4798 2050 4798000000
4799 2050 4799000000
4800 2050 4800000000
4801 2050 4801000000
4802 2050 4802000000
4803 2050 4803000000
4804 2051 4804000000
4805 2051 4805000000
4806 2051 4806000000
4807 2051 4807000000
4808 2052 4808000000
4809 2054 4809000000
4810 2055 4810000000
4811 2056 4811000000
4812 2054 4812000000
4813 2053 4813000000
4814 2053 4814000000
4815 2055 4815000000
4816 2055 4816000000
4817 2056 4817000000
4818 2059 4818000000
4819 2059 4819000000
4820 2060 4820000000
4821 2062 4821000000
4822 2062 4822000000
4823 2062 4823000000
4824 2062 4824000000
4825 2062 4825000000
4826 2064 4826000000
4827 2064 4827000000
4828 2065 4828000000
4829 2065 4829000000
4830 2065 4830000000
4831 2066 4831000000
4832 2066 4832000000
4833 2066 4833000000
4834 2067 4834000000
4835 2068 4835000000
4836 2068 4836000000
4837 2068 4837000000
4838 2068 4838000000
4839 2068 4839000000
4840 2068 4840000000
4841 2068 4841000000
4842 2070 4842000000
4843 2071 4843000000
4844 2072 4844000000
4845 2072 4845000000
4846 2074 4846000000
4847 2074 4847000000
4848 2075 4848000000
4849 2075 4849000000
4850 2075 4850000000
4851 2076 4851000000
4852 2076 4852000000
4853 2076 4853000000
4854 2075 4854000000
4855 2075 4855000000
4856 2074 4856000000
4857 2074 4857000000
4858 2074 4858000000
4859 2074 4859000000
4860 2072 4860000000
4861 2072 4861000000
4862 2071 4862000000
4863 2071 4863000000
4864 2070 4864000000
4865 2070 4865000000
4866 2070 4866000000
4867 2068 4867000000
4868 2068 4868000000
4869 2068 4869000000
4870 2068 4870000000
4871 2069 4871000000
4872 2069 4872000000
4873 2067 4873000000
4874 2066 4874000000
4875 2065 4875000000
4876 2065 4876000000
4877 2065 4877000000
4878 2067 4878000000
4879 2067 4879000000
4880 2067 4880000000
4881 2066 4881000000
4882 2067 4882000000
4883 2067 4883000000
4884 2069 4884000000
4885 2070 4885000000
4886 2070 4886000000
4887 2070 4887000000
4888 2070 4888000000
4889 2071 4889000000
4890 2069 4890000000
4891 2069 4891000000
4892 2068 4892000000
4893 2065 4893000000
4894 2064 4894000000
4895 2063 4895000000
4896 2062 4896000000
4897 2061 4897000000
4898 2061 4898000000
4899 2059 4899000000
4900 2056 4900000000
4901 2052 4901000000
4902 2050 4902000000
4903 2048 4903000000
4904 2047 4904000000
4905 2046 4905000000
4906 2045 4906000000
4907 2044 4907000000
4908 2043 4908000000
4909 2043 4909000000
4910 2043 4910000000
4911 2043 4911000000
4912 2045 4912000000
4913 2045 4913000000
4914 2045 4914000000
4915 2046 4915000000
4916 2046 4916000000
4917 2045 4917000000
4918 2042 4918000000
4919 2042 4919000000
4920 2041 4920000000
4921 2041 4921000000
4922 2041 4922000000
4923 2041 4923000000
4924 2040 4924000000
4925 2040 4925000000
4926 2041 4926000000
4927 2041 4927000000
4928 2041 4928000000
4929 2041 4929000000
4930 2041 4930000000
4931 2040 4931000000
4932 2040 4932000000
4933 2040 4933000000
4934 2040 4934000000
4935 2040 4935000000
4936 2040 4936000000
4937 2041 4937000000
4938 2042 4938000000
4939 2043 4939000000
4940 2042 4940000000
4941 2042 4941000000
4942 2043 4942000000
4943 2042 4943000000
4944 2042 4944000000
4945 2042 4945000000
4946 2042 4946000000
4947 2041 4947000000
4948 2041 4948000000
4949 2041 4949000000
4950 2040 4950000000
4951 2040 4951000000
4952 2040 4952000000
4953 2038 4953000000
4954 2039 4954000000
4955 2040 4955000000
4956 2040 4956000000
4957 2039 4957000000
4958 2039 4958000000
4959 2039 4959000000
4960 2039 4960000000
4961 2039 4961000000
4962 2039 4962000000
4963 2039 4963000000
4964 2039 4964000000
4965 2040 4965000000
4966 2041 4966000000
4967 2041 4967000000
4968 2040 4968000000
4969 2040 4969000000
4970 2040 4970000000
4971 2040 4971000000
4972 2040 4972000000
4973 2039 4973000000
4974 2039 4974000000
4975 2039 4975000000
4976 2040 4976000000
4977 2040 4977000000
4978 2040 4978000000
4979 2039 4979000000
4980 2039 4980000000
4981 2039 4981000000
4982 2038 4982000000
4983 2036 4983000000
4984 2036 4984000000
4985 2035 4985000000
4986 2035 4986000000
4987 2031 4987000000
4988 2029 4988000000
4989 2025 4989000000
4990 2021 4990000000
4991 2019 4991000000
4992 2017 4992000000
4993 2013 4993000000
4994 2011 4994000000
4995 2009 4995000000
4996 2008 4996000000
4997 2006 4997000000
4998 2003 4998000000
4999 2001 4999000000
5000 1999 5000000000
5001 1996 5001000000
5002 1995 5002000000
5003 1995 5003000000
5004 1997 5004000000
5005 1999 5005000000
5006 2006 5006000000
5007 2011 5007000000
5008 2016 5008000000
5009 2032 5009000000
5010 2040 5010000000
5011 2046 5011000000
5012 2062 5012000000
5013 2077 5013000000
5014 2086 5014000000
5015 2114 5015000000
5016 2121 5016000000
5017 2138 5017000000
5018 2171 5018000000
5019 2179 5019000000
5020 2202 5020000000
5021 2240 5021000000
5022 2247 5022000000
5023 2278 5023000000
5024 2292 5024000000
5025 2306 5025000000
5026 2322 5026000000
5027 2339 5027000000
5028 2344 5028000000
5029 2344 5029000000
5030 2345 5030000000
5031 2342 5031000000
5032 2329 5032000000
5033 2325 5033000000
5034 2289 5034000000
5035 2264 5035000000
5036 2256 5036000000
5037 2197 5037000000
5038 2167 5038000000
5039 2147 5039000000
5040 2100 5040000000
5041 2083 5041000000
5042 2060 5042000000
5043 2030 5043000000
5044 2019 5044000000
5045 2007 5045000000
5046 1996 5046000000
5047 1996 5047000000
5048 1992 5048000000
5049 1992 5049000000
5050 1992 5050000000
5051 1998 5051000000
5052 2002 5052000000
5053 2010 5053000000
5054 2015 5054000000
5055 2020 5055000000
5056 2027 5056000000
5057 2029 5057000000
5058 2032 5058000000
5059 2032 5059000000
5060 2032 5060000000
5061 2030 5061000000
5062 2026 5062000000
5063 2024 5063000000
5064 2019 5064000000
5065 2019 5065000000
5066 2016 5066000000
5067 2014 5067000000
5068 2014 5068000000
5069 2014 5069000000
5070 2017 5070000000
5071 2020 5071000000
5072 2020 5072000000
5073 2024 5073000000
5074 2026 5074000000
5075 2026 5075000000
5076 2028 5076000000
5077 2028 5077000000
5078 2026 5078000000
5079 2023 5079000000
5080 2023 5080000000
5081 2021 5081000000
5082 2021 5082000000
5083 2018 5083000000
5084 2018 5084000000
5085 2018 5085000000
5086 2018 5086000000
5087 2020 5087000000
5088 2020 5088000000
5089 2020 5089000000
5090 2020 5090000000
5091 2020 5091000000
5092 2025 5092000000
5093 2024 5093000000
5094 2023 5094000000
5095 2023 5095000000
5096 2022 5096000000
5097 2020 5097000000
5098 2021 5098000000
5099 2021 5099000000
5100 2021 5100000000
5101 2021 5101000000
5102 2020 5102000000
5103 2020 5103000000
5104 2019 5104000000
5105 2019 5105000000
5106 2019 5106000000
5107 2021 5107000000
5108 2021 5108000000
5109 2022 5109000000
5110 2021 5110000000
5111 2021 5111000000
5112 2020 5112000000
5113 2019 5113000000
5114 2018 5114000000
5115 2019 5115000000
5116 2019 5116000000
5117 2019 5117000000
5118 2019 5118000000
5119 2019 5119000000
5120 2020 5120000000
5121 2021 5121000000
5122 2021 5122000000
5123 2021 5123000000
5124 2020 5124000000
5125 2020 5125000000
5126 2020 5126000000
5127 2022 5127000000
5128 2022 5128000000
5129 2022 5129000000
5130 2022 5130000000
5131 2022 5131000000
5132 2022 5132000000
5133 2022 5133000000
5134 2021 5134000000
5135 2021 5135000000
5136 2021 5136000000
5137 2020 5137000000
5138 2021 5138000000
5139 2021 5139000000
5140 2021 5140000000
5141 2021 5141000000
5142 2023 5142000000
5143 2023 5143000000
5144 2023 5144000000
5145 2023 5145000000
5146 2022 5146000000
5147 2022 5147000000
5148 2023 5148000000
5149 2024 5149000000
5150 2024 5150000000
5151 2024 5151000000
5152 2024 5152000000
5153 2024 5153000000
5154 2025 5154000000
5155 2026 5155000000
5156 2026 5156000000
5157 2026 5157000000
5158 2027 5158000000
5159 2027 5159000000
5160 2027 5160000000
5161 2027 5161000000
5162 2027 5162000000
5163 2027 5163000000
5164 2027 5164000000
5165 2027 5165000000
5166 2027 5166000000
5167 2027 5167000000
5168 2029 5168000000
5169 2029 5169000000
5170 2029 5170000000
5171 2029 5171000000
5172 2028 5172000000
5173 2028 5173000000
5174 2028 5174000000
5175 2028 5175000000
5176 2029 5176000000
5177 2029 5177000000
5178 2030 5178000000
5179 2029 5179000000
5180 2029 5180000000
5181 2030 5181000000
5182 2031 5182000000
5183 2031 5183000000
5184 2030 5184000000
5185 2028 5185000000
5186 2027 5186000000
5187 2027 5187000000
5188 2028 5188000000
5189 2028 5189000000
5190 2028 5190000000
5191 2028 5191000000
5192 2030 5192000000
5193 2029 5193000000
5194 2029 5194000000
5195 2029 5195000000
5196 2028 5196000000
5197 2028 5197000000
5198 2028 5198000000
5199 2028 5199000000
5200 2028 5200000000
5201 2028 5201000000
5202 2028 5202000000
5203 2028 5203000000
5204 2029 5204000000
5205 2029 5205000000
5206 2029 5206000000
5207 2029 5207000000
5208 2029 5208000000
5209 2029 5209000000
5210 2028 5210000000
5211 2028 5211000000
5212 2028 5212000000
5213 2028 5213000000
5214 2028 5214000000
5215 2029 5215000000
5216 2029 5216000000
5217 2029 5217000000
5218 2029 5218000000
5219 2029 5219000000
5220 2029 5220000000
5221 2029 5221000000
5222 2030 5222000000
5223 2029 5223000000
5224 2029 5224000000
5225 2029 5225000000
5226 2029 5226000000
5227 2029 5227000000
5228 2030 5228000000
5229 2030 5229000000
5230 2030 5230000000
5231 2031 5231000000
5232 2032 5232000000
5233 2032 5233000000
5234 2032 5234000000
5235 2032 5235000000
5236 2032 5236000000
5237 2031 5237000000
5238 2031 5238000000
5239 2032 5239000000
5240 2032 5240000000
5241 2032 5241000000
5242 2033 5242000000
5243 2034 5243000000
5244 2035 5244000000
5245 2034 5245000000
5246 2032 5246000000
5247 2032 5247000000
5248 2034 5248000000
5249 2036 5249000000
5250 2036 5250000000
5251 2036 5251000000
5252 2036 5252000000
5253 2035 5253000000
5254 2035 5254000000
5255 2035 5255000000
5256 2034 5256000000
5257 2033 5257000000
5258 2033 5258000000
5259 2033 5259000000
5260 2033 5260000000
5261 2033 5261000000
5262 2031 5262000000
5263 2030 5263000000
5264 2030 5264000000
5265 2031 5265000000
5266 2031 5266000000
5267 2031 5267000000
5268 2032 5268000000
5269 2032 5269000000
5270 2032 5270000000
5271 2032 5271000000
5272 2032 5272000000
5273 2032 5273000000
5274 2033 5274000000
5275 2033 5275000000
5276 2033 5276000000
5277 2033 5277000000
5278 2033 5278000000
5279 2033 5279000000
5280 2033 5280000000
5281 2033 5281000000
5282 2033 5282000000
5283 2032 5283000000
5284 2032 5284000000
5285 2032 5285000000
5286 2032 5286000000
5287 2032 5287000000
5288 2032 5288000000
5289 2029 5289000000
5290 2032 5290000000
5291 2032 5291000000
5292 2033 5292000000
5293 2033 5293000000
5294 2032 5294000000
5295 2033 5295000000
5296 2032 5296000000
5297 2032 5297000000
5298 2033 5298000000
5299 2034 5299000000
5300 2035 5300000000
5301 2035 5301000000
5302 2036 5302000000
5303 2035 5303000000
5304 2034 5304000000
5305 2034 5305000000
5306 2034 5306000000
5307 2034 5307000000
5308 2034 5308000000
5309 2034 5309000000
5310 2033 5310000000
5311 2033 5311000000
5312 2032 5312000000
5313 2031 5313000000
5314 2031 5314000000
5315 2035 5315000000
5316 2036 5316000000
5317 2036 5317000000
5318 2036 5318000000
5319 2036 5319000000
5320 2035 5320000000
5321 2036 5321000000
5322 2036 5322000000
5323 2036 5323000000
5324 2036 5324000000
5325 2035 5325000000
5326 2035 5326000000
5327 2035 5327000000
5328 2036 5328000000
5329 2037 5329000000
5330 2037 5330000000
5331 2037 5331000000
5332 2038 5332000000
5333 2038 5333000000
5334 2037 5334000000
5335 2038 5335000000
5336 2038 5336000000
5337 2039 5337000000
5338 2040 5338000000
5339 2040 5339000000
5340 2041 5340000000
5341 2041 5341000000
5342 2044 5342000000
5343 2046 5343000000
5344 2047 5344000000
5345 2047 5345000000
5346 2049 5346000000
5347 2049 5347000000
5348 2050 5348000000
5349 2051 5349000000
5350 2051 5350000000
5351 2051 5351000000
5352 2051 5352000000
5353 2052 5353000000
5354 2053 5354000000
5355 2054 5355000000
5356 2054 5356000000
5357 2055 5357000000
5358 2057 5358000000
5359 2057 5359000000
5360 2058 5360000000
5361 2058 5361000000
5362 2058 5362000000
5363 2058 5363000000
5364 2058 5364000000
5365 2060 5365000000
5366 2060 5366000000
5367 2060 5367000000
5368 2061 5368000000
5369 2061 5369000000
5370 2060 5370000000
5371 2059 5371000000
5372 2059 5372000000
5373 2058 5373000000
5374 2058 5374000000
5375 2058 5375000000
5376 2058 5376000000
5377 2060 5377000000
5378 2060 5378000000
5379 2059 5379000000
5380 2058 5380000000
5381 2058 5381000000
5382 2058 5382000000
5383 2058 5383000000
5384 2058 5384000000
5385 2058 5385000000
5386 2058 5386000000
5387 2058 5387000000
5388 2058 5388000000
5389 2059 5389000000
5390 2058 5390000000
5391 2058 5391000000
5392 2058 5392000000
5393 2058 5393000000
5394 2058 5394000000
5395 2058 5395000000
5396 2058 5396000000
5397 2058 5397000000
5398 2058 5398000000
5399 2058 5399000000
5400 2058 5400000000
5401 2057 5401000000
5402 2058 5402000000
5403 2058 5403000000
5404 2057 5404000000
5405 2057 5405000000
5406 2057 5406000000
5407 2056 5407000000
5408 2056 5408000000
5409 2057 5409000000
5410 2057 5410000000
5411 2057 5411000000
5412 2056 5412000000
5413 2055 5413000000
5414 2055 5414000000
5415 2055 5415000000
5416 2055 5416000000
5417 2055 5417000000
5418 2056 5418000000
5419 2056 5419000000
5420 2056 5420000000
5421 2056 5421000000
5422 2056 5422000000
5423 2056 5423000000
5424 2056 5424000000
5425 2056 5425000000
5426 2056 5426000000
5427 2056 5427000000
5428 2057 5428000000
5429 2056 5429000000
5430 2056 5430000000
5431 2056 5431000000
5432 2057 5432000000
5433 2057 5433000000
5434 2057 5434000000
5435 2057 5435000000
5436 2057 5436000000
5437 2056 5437000000
5438 2056 5438000000
5439 2057 5439000000
5440 2056 5440000000
5441 2056 5441000000
5442 2057 5442000000
5443 2056 5443000000
5444 2056 5444000000
5445 2055 5445000000
5446 2054 5446000000
5447 2053 5447000000
5448 2052 5448000000
5449 2053 5449000000
5450 2053 5450000000
5451 2054 5451000000
5452 2055 5452000000
5453 2054 5453000000
5454 2055 5454000000
5455 2056 5455000000
5456 2056 5456000000
5457 2056 5457000000
5458 2056 5458000000
5459 2058 5459000000
5460 2058 5460000000
5461 2058 5461000000
5462 2059 5462000000
5463 2058 5463000000
5464 2058 5464000000
5465 2058 5465000000
5466 2058 5466000000
5467 2057 5467000000
5468 2059 5468000000
5469 2058 5469000000
5470 2058 5470000000
5471 2058 5471000000
5472 2058 5472000000
5473 2058 5473000000
5474 2058 5474000000
5475 2058 5475000000
5476 2058 5476000000
5477 2058 5477000000
5478 2060 5478000000
5479 2060 5479000000
5480 2059 5480000000
5481 2060 5481000000
5482 2061 5482000000
5483 2061 5483000000
5484 2062 5484000000
5485 2063 5485000000
5486 2063 5486000000
5487 2064 5487000000
5488 2064 5488000000
5489 2064 5489000000
5490 2064 5490000000
5491 2064 5491000000
5492 2065 5492000000
5493 2064 5493000000
5494 2064 5494000000
5495 2064 5495000000
5496 2064 5496000000
5497 2065 5497000000
5498 2066 5498000000
5499 2066 5499000000
5500 2066 5500000000
5501 2067 5501000000
5502 2069 5502000000
5503 2069 5503000000
5504 2068 5504000000
5505 2067 5505000000
5506 2066 5506000000
5507 2063 5507000000
5508 2063 5508000000
5509 2063 5509000000
5510 2063 5510000000
5511 2063 5511000000
5512 2066 5512000000
5513 2068 5513000000
5514 2069 5514000000
5515 2071 5515000000
5516 2072 5516000000
5517 2071 5517000000
5518 2070 5518000000
5519 2069 5519000000
5520 2068 5520000000
5521 2067 5521000000
5522 2067 5522000000
5523 2067 5523000000
5524 2067 5524000000
5525 2067 5525000000
5526 2068 5526000000
5527 2068 5527000000
5528 2068 5528000000
5529 2068 5529000000
5530 2066 5530000000
5531 2065 5531000000
5532 2064 5532000000
5533 2062 5533000000
5534 2060 5534000000
5535 2060 5535000000
5536 2059 5536000000
5537 2057 5537000000
5538 2055 5538000000
5539 2055 5539000000
5540 2054 5540000000
5541 2054 5541000000
5542 2053 5542000000
5543 2049 5543000000
5544 2049 5544000000
5545 2048 5545000000
5546 2048 5546000000
5547 2048 5547000000
5548 2048 5548000000
5549 2048 5549000000
5550 2043 5550000000
5551 2042 5551000000
5552 2042 5552000000
5553 2042 5553000000
5554 2041 5554000000
5555 2040 5555000000
5556 2040 5556000000
5557 2039 5557000000
5558 2039 5558000000
5559 2040 5559000000
5560 2040 5560000000
5561 2040 5561000000
5562 2039 5562000000
5563 2037 5563000000
5564 2035 5564000000
5565 2034 5565000000
5566 2034 5566000000
5567 2032 5567000000
5568 2032 5568000000
5569 2032 5569000000
5570 2032 5570000000
5571 2033 5571000000
5572 2034 5572000000
5573 2034 5573000000
5574 2034 5574000000
5575 2034 5575000000
5576 2033 5576000000
5577 2032 5577000000
5578 2032 5578000000
5579 2031 5579000000
5580 2031 5580000000
5581 2030 5581000000
5582 2031 5582000000
5583 2031 5583000000
5584 2031 5584000000
5585 2031 5585000000
5586 2031 5586000000
5587 2030 5587000000
5588 2030 5588000000
5589 2030 5589000000
5590 2030 5590000000
5591 2030 5591000000
5592 2033 5592000000
5593 2033 5593000000
5594 2033 5594000000
5595 2034 5595000000
5596 2033 5596000000
5597 2032 5597000000
5598 2034 5598000000
5599 2035 5599000000
5600 2035 5600000000
5601 2036 5601000000
5602 2036 5602000000
5603 2036 5603000000
5604 2035 5604000000
5605 2034 5605000000
5606 2034 5606000000
5607 2034 5607000000
5608 2036 5608000000
5609 2037 5609000000
5610 2037 5610000000
5611 2038 5611000000
5612 2038 5612000000
5613 2037 5613000000
5614 2036 5614000000
5615 2038 5615000000
5616 2038 5616000000
5617 2038 5617000000
5618 2038 5618000000
5619 2038 5619000000
5620 2037 5620000000
5621 2038 5621000000
5622 2038 5622000000
5623 2038 5623000000
5624 2037 5624000000
5625 2037 5625000000
5626 2037 5626000000
5627 2038 5627000000
5628 2039 5628000000
5629 2037 5629000000
5630 2035 5630000000
5631 2035 5631000000
5632 2035 5632000000
5633 2036 5633000000
5634 2034 5634000000
5635 2033 5635000000
5636 2033 5636000000
5637 2029 5637000000
5638 2027 5638000000
5639 2026 5639000000
5640 2022 5640000000
5641 2021 5641000000
5642 2019 5642000000
5643 2016 5643000000
5644 2013 5644000000
5645 2009 5645000000
5646 2006 5646000000
5647 2003 5647000000
5648 2001 5648000000
5649 2001 5649000000
5650 2001 5650000000
5651 1994 5651000000
5652 1992 5652000000
5653 1990 5653000000
5654 1988 5654000000
5655 1986 5655000000
5656 1987 5656000000
5657 1991 5657000000
5658 1991 5658000000
5659 2000 5659000000
5660 2010 5660000000
5661 2013 5661000000
5662 2031 5662000000
5663 2038 5663000000
5664 2047 5664000000
5665 2067 5665000000
5666 2075 5666000000
5667 2089 5667000000
5668 2105 5668000000
5669 2113 5669000000
5670 2137 5670000000
5671 2163 5671000000
5672 2171 5672000000
5673 2207 5673000000
5674 2230 5674000000
5675 2236 5675000000
5676 2271 5676000000
5677 2286 5677000000
5678 2296 5678000000
5679 2310 5679000000
5680 2317 5680000000
5681 2324 5681000000
5682 2331 5682000000
5683 2331 5683000000
5684 2322 5684000000
5685 2316 5685000000
5686 2313 5686000000
5687 2276 5687000000
5688 2252 5688000000
5689 2233 5689000000
5690 2180 5690000000
5691 2158 5691000000
5692 2126 5692000000
5693 2086 5693000000
5694 2076 5694000000
5695 2049 5695000000
5696 2026 5696000000
5697 2014 5697000000
5698 2005 5698000000
5699 2005 5699000000
5700 1991 5700000000
5701 1991 5701000000
5702 1993 5702000000
5703 1994 5703000000
5704 2000 5704000000
5705 2005 5705000000
5706 2012 5706000000
5707 2021 5707000000
5708 2021 5708000000
5709 2029 5709000000
5710 2029 5710000000
5711 2032 5711000000
5712 2030 5712000000
5713 2030 5713000000
5714 2024 5714000000
5715 2024 5715000000
5716 2022 5716000000
5717 2017 5717000000
5718 2014 5718000000
5719 2011 5719000000
5720 2011 5720000000
5721 2011 5721000000
5722 2015 5722000000
5723 2017 5723000000
5724 2018 5724000000
5725 2023 5725000000
5726 2023 5726000000
5727 2025 5727000000
5728 2026 5728000000
5729 2026 5729000000
5730 2026 5730000000
5731 2022 5731000000
5732 2022 5732000000
5733 2020 5733000000
5734 2019 5734000000
5735 2019 5735000000
5736 2019 5736000000
5737 2017 5737000000
5738 2016 5738000000
5739 2018 5739000000
5740 2018 5740000000
5741 2018 5741000000
5742 2023 5742000000
5743 2023 5743000000
5744 2024 5744000000
5745 2025 5745000000
5746 2025 5746000000
5747 2025 5747000000
5748 2023 5748000000
5749 2021 5749000000
5750 2021 5750000000
5751 2018 5751000000
5752 2018 5752000000
5753 2016 5753000000
5754 2016 5754000000
5755 2016 5755000000
5756 2016 5756000000
5757 2016 5757000000
5758 2016 5758000000
5759 2022 5759000000
5760 2022 5760000000
5761 2022 5761000000
5762 2024 5762000000
5763 2024 5763000000
5764 2023 5764000000
5765 2024 5765000000
5766 2024 5766000000
5767 2023 5767000000
5768 2023 5768000000
5769 2023 5769000000
5770 2022 5770000000
5771 2022 5771000000
5772 2021 5772000000
5773 2021 5773000000
5774 2021 5774000000
5775 2021 5775000000
5776 2022 5776000000
5777 2021 5777000000
5778 2021 5778000000
5779 2021 5779000000
5780 2021 5780000000
5781 2020 5781000000
5782 2021 5782000000
5783 2021 5783000000
5784 2021 5784000000
5785 2019 5785000000
5786 2019 5786000000
5787 2019 5787000000
5788 2020 5788000000
5789 2021 5789000000
5790 2021 5790000000
5791 2023 5791000000
5792 2023 5792000000
5793 2023 5793000000
5794 2023 5794000000
5795 2026 5795000000
5796 2025 5796000000
5797 2025 5797000000
5798 2025 5798000000
5799 2025 5799000000
5800 2025 5800000000
5801 2025 5801000000
5802 2025 5802000000
5803 2025 5803000000
5804 2026 5804000000
5805 2027 5805000000
5806 2027 5806000000
5807 2026 5807000000
5808 2026 5808000000
5809 2026 5809000000
5810 2026 5810000000
5811 2026 5811000000
5812 2026 5812000000
5813 2026 5813000000
5814 2026 5814000000
5815 2028 5815000000
5816 2028 5816000000
5817 2028 5817000000
5818 2026 5818000000
